2813.9	2.2361
2999.5	3
3209.8	5.6569
3452	8.2462
3733	10.198
4097.4	9.434
4512.7	7.8102
4930	5.6569
5243.4	5.3852
5390.8	7.0711
5347.7	10.198
5159	12.649
4924.4	14.765
4730.3	17.029
4605.8	20
4485.2	21.84
4275	22.091
3911.6	21.095
3409.4	19.235
2849.4	15.297
2326.7	13.038
1893.1	13
1531.2	15.232
1217.6	17.263
1060.8	18.439
1273.4	18.788
1733.6	18.028
2204.3	16.763
2543.7	14.866
2737.2	13.416
2877.1	13.038
3095.9	12.042
3453.8	13.153
3874.6	14.422
4207.2	16.553
4343.3	18.028
4255	18.358
4026.2	17.804
3775.9	15.811
3618.8	13
3544.3	10.198
3442.4	7.6158
3185	5.3852
2722	4
2097.8	4.1231
1410.9	5.3852
808.3	7.0711
453.69	7.0711
373.21	5.831
381.92	2.8284
578.28	1
995.08	6.0828
1465.1	10.817
1862.1	13.892
2098.7	16.125
2180.8	15.811
2165.7	14.866
2180	12.083
2294.1	8.0623
2460.5	5.099
2581	2.2361
2571.4	1
2403.2	2.2361
2130.1	4.1231
1819.5	7.2111
1554.9	9.8489
1345.7	12
1148.2	12.083
905.1	11.402
623.16	9.2195
427.6	7.2801
528.16	4.2426
756.23	2.2361
953.04	1
1113.1	1
1273.1	1.4142
1476.6	2
1721.2	2.8284
1932	3
2064.2	2.2361
2088.1	1
2016.9	2.2361
1900.3	3.1623
1778.8	5.3852
1676	5.6569
1560.6	4.1231
1407.4	2
1182.4	2
899.12	5.099
577.17	7.8102
277.97	9.8489
134.81	10
313.23	7.6158
537.45	5.6569
777.77	2.2361
1029.1	2.2361
1264.5	4.4721
1458	5.099
1592	5.099
1666	4.1231
1701.2	4.1231
1739.1	6.0828
1791.8	8.0623
1845.6	9.434
1860.3	9.434
1807.9	8.0623
1677.3	5.831
1490.2	3.1623
1279.8	1.4142
1073.4	2.2361
880.26	3
695.52	3
483.7	3
236.54	4.1231
39.319	5.831
312.24	6.4031
552.74	6
748.43	5
904	3
1027.6	4
1160.4	5
1294	7
1430.5	7.8102
1515.7	7.2801
1546.1	6.3246
1512.4	5
1424.2	3
1317.6	2.2361
1218.1	1.4142
1124.5	2.2361
1026	3
893.78	4.2426
731.15	5.099
541.91	6.3246
362.33	5.831
242.99	6
249.78	5.6569
350.47	5
479.17	5
625.32	4.4721
775.15	4
909.64	4.1231
1008.6	4.4721
1067.8	5.6569
1090.8	5.3852
1090.7	5
1085.8	4.4721
1077.3	2.8284
1059.9	1
1004.9	1
919.36	2.8284
798.5	3.1623
662.7	3.1623
518.6	2.2361
390.33	1.4142
285.41	1.4142
232.77	2.2361
273.39	3.1623
379.44	4
511.84	3.1623
639.7	3.1623
745.95	3.1623
834.66	4.4721
906.97	4.2426
968.67	4.4721
1016.1	4
2100.8	11.045
2490.9	14.422
2984.3	15.811
3531.8	14.866
4100	12.53
4644.8	8.544
5110.9	6.0828
5460.7	8
5677.2	10.63
5766.3	12
5752.2	11.402
5654.5	8.0623
5493.5	4.4721
5272.8	6.3246
4986.1	12.53
4638.3	18.868
4235.6	23
3805.3	26.077
3357.9	26
2910.9	24.515
2437.8	21.932
1942.4	17.117
1416.2	13.416
917.88	8.6023
720.18	7.6158
1061.1	7.2801
1599.8	11
2119.6	14.765
2574.7	18.358
2966	21
3313.9	21.095
3650.3	20.591
3980.3	18.028
4281.9	15.524
4521.7	12.53
4660.2	12.207
4702	13.454
4637.1	13.928
4495.6	14.142
4294.8	12.806
4040.3	10.44
3705.3	8.0623
3281.1	6.0828
2746.9	5
2144.9	4.4721
1521	4
987.6	4.2426
761.32	4.1231
957.55	3.6056
1306.2	4
1671.1	3.6056
2006.6	4.2426
2329.2	5.831
2616.9	8.2462
2841.6	10.198
2986.1	12.806
3044.4	13
3030.4	12.166
2972.2	10.63
2877.1	8.544
2735.8	6.0828
2539.4	4.1231
2261.9	3.1623
1907.4	4.4721
1479.1	5.831
1023.5	8.0623
564.99	9.2195
157.38	10.198
338.38	9.4868
720.82	9.2195
1086.5	7.2801
1429.2	6
1724.5	4.1231
1963.1	4
2136.5	4.1231
2239.2	5
2282.5	3.6056
2277.2	2
2232.6	0
2151.1	2.2361
2023	3.6056
1837.7	4
1601.3	3.6056
1318.5	2.8284
1009.1	2.2361
694.14	2
399.74	3.1623
153.29	3.6056
228.86	3.6056
480.34	3.6056
743.86	3.6056
993.38	5.6569
1217.7	6.3246
1389.3	6.3246
1512.6	5.831
1582.5	4.4721
1614.3	5
1619.8	5.831
1614.6	6.3246
1604.4	6.7082
1575.9	5.099
1529	2
1448	2.8284
1341.8	7
1202.3	10.63
1057.1	12.166
901.62	13.038
749.4	12.369
606.28	10.296
488.6	8
428.51	6.7082
442.46	6.4031
513.14	6.0828
612.11	6.0828
705.22	6.4031
789.76	8.0623
860.46	10
921.82	12.042
970.7	13.153
998.45	13.892
1012.3	13
992.23	13.342
959.65	13.454
907.07	13
846.83	11.402
795.41	10.198
751.69	7.2801
723.87	4.4721
718.54	5.831
734.8	8.9443
755.27	11.18
790.55	12.806
829.17	13.038
850.05	13.454
868.02	12.166
876.96	11.662
871.27	9.8489
849.04	7.2801
819.35	4.2426
772.71	4.4721
719.48	7.8102
674.54	10.198
625.35	12.806
590.03	13.038
570.55	11.402
568.34	9.2195
581.42	6.3246
600.35	5.831
630.8	7.2111
654	7
680.61	7.2111
696.22	6.3246
701.6	5
705.11	5.3852
704.92	6.4031
696.47	7
678.13	6.4031
672.5	5.3852
653.55	5
648.83	6.3246
646.31	8.0623
650.24	8.2462
661.25	6.7082
669.79	5.099
682.07	2.8284
688.18	3
6216.3	14.866
6328.5	12.166
6110.6	6.7082
5573.7	1
4736.2	4
3636	7.0711
2373.8	8
1387.3	6.7082
1916.4	6.4031
3341	10.817
4804.3	16.125
6093.8	19.416
7113.2	18.682
7816.5	14.866
8212.3	6.7082
8315.4	4.1231
8150.2	15
7732.7	25
7070.5	33.242
6183.8	37.59
5114.5	37.656
3995.2	34.205
3094.5	29.155
2824.7	21.401
3325.6	13
4153.3	8.0623
4933.3	13.892
5494.5	22.091
5771.8	29.732
5773.2	35.228
5510	36.056
5034.5	32.573
4386.3	25.632
3633	15.652
2840	4.2426
2151	9.2195
1862.7	19.235
2153	25.495
2768	28.425
3426.2	27
3964.5	22.627
4310.9	17.029
4429.9	13
4316.5	12.728
3994.5	13.342
3514.9	14.318
2967	13
2496.8	11.402
2295.6	7.8102
2446.7	6.7082
2815.7	7.2801
3272.6	10.198
3676.1	14.213
3992.8	17.029
4197.7	18.439
4283.4	20.1
4246.6	19.416
4092.2	16.763
3825.6	13
3456.7	7.2801
2994.2	3
2474.6	7.0711
1927.1	13.038
1370	17.117
852.12	19.799
397.88	19.105
141.68	17.205
381.01	12.166
619.54	7.8102
818.94	5.6569
1004.4	7.8102
1200.3	11.18
1417.6	13.892
1660.2	14.866
1901.7	15.811
2135.5	15.811
2331.3	15
2471.8	14.422
2542.8	13
2505.3	13.038
2369.1	13.038
2126.2	13.892
1787.4	15.033
1385	16.401
932.93	16.763
483.13	15.524
174.73	15.556
478.14	15.524
842.12	16.763
1139.9	17.692
1354.4	19.105
1461.3	19.723
1472.8	19.698
1370.8	19.416
1204.4	18.439
1005.5	17.029
859.79	14.765
842.95	12.207
977.44	12.166
1210.4	12.369
1475.2	14.142
1717.4	15.133
1914.8	14.422
2035.9	12.369
2061.6	9.4868
1988.4	5.6569
1805.1	4.2426
1533	6.4031
1191.5	9.4868
836.76	11.705
566.61	12.53
579.79	12.166
849.53	11.314
1169.1	9.2195
1452.5	8.0623
1671.6	8.9443
1794.6	10.63
1832.4	13.153
1759.8	15.232
1600.4	16.125
1356.7	18.111
1032	19.799
658.43	20.1
258.55	20.809
147.26	19.647
538.51	16.553
885.74	13.892
1168.7	12
1379.5	11.705
1501.3	13.454
1534	15.133
1476.1	17.493
1344.7	18.439
1140	17.493
882.63	16.492
589.8	13.892
294.02	11.705
216.84	8.2462
450.29	7.8102
701.93	7.2111
904.54	9
1047	10.63
1124.4	13.038
1135.1	13.454
1079.5	14
970.09	12.728
807.8	11
608.76	8.6023
396.24	7.6158
252.77	9
319.24	10
505.62	11.402
686.13	11.18
825.58	11.18
925.72	10.198
971.15	9.2195
964.18	9.8489
906.99	11.18
810.7	12.042
691.89	13
572.24	12.806
486.51	11.402
486.04	10.77
549.76	10
633.83	9.2195
715.63	9.4868
7031.1	15.033
7162.5	13.454
6887	11.045
6230.4	8.9443
5213.7	8.6023
3861	8.0623
2242.1	6.7082
624.04	5.6569
1690.8	6.4031
3559.3	10.77
5294	16.155
6762.4	19.698
7877.1	21.471
8613.1	19.647
8974.8	14.765
8988.8	8.4853
8699.5	11.18
8149.2	21.095
7355	32.985
6340.6	42.048
5181.2	47.424
4020.8	47.539
3183.2	42.438
3069.8	33.541
3656.4	23.259
4471.3	18.028
5176	24.759
5603.3	36.125
5728.8	44.688
5552.7	48
5127.9	46.098
4506.5	38.328
3758.5	27.803
2961.6	17.263
2242.4	15.133
1873	22.561
2085.8	30
2718.9	33.734
3430.6	33.121
4050	28.792
4477.9	21.541
4671.4	13.601
4626.1	8.6023
4345.2	8.4853
3885.4	10.198
3315.9	9.434
2732.7	6.3246
2293.7	2
2151.5	4.2426
2343.6	8
2725.3	10
3118.9	8.544
3437	5
3639.6	3.6056
3704.6	10
3660.2	16.553
3518	21.213
3304.6	22.672
3042.1	22.023
2764.2	18.385
2488.8	13.342
2233.1	13
1995.5	17.088
1765.4	22.204
1525	27.295
1236.2	29.206
885.6	29.155
505.65	26.907
364.78	23.087
731.92	20.616
1225.1	19.849
1717.2	22.561
2172.8	25.632
2549.3	29.155
2842.8	29.428
3019.1	29.833
3060.6	28
2964.5	25.239
2724.8	23.77
2370	24.331
1912.6	24.759
1393.9	25.318
863.65	25.942
378.76	25.08
271.43	23.537
595.91	22.672
868.14	22.204
1029.1	22.825
1067.4	22.847
983.57	22.804
800.61	21.633
575.59	21.213
470.26	19.849
660.93	18
986.84	14.866
1324.8	13.153
1597.1	10.296
1797.5	8.6023
1922.2	8.0623
1969	8.9443
1933.2	9.8489
1838.4	8.9443
1687.7	8.0623
1497.4	5.6569
1291.6	2.2361
1098.1	2.2361
933.09	5.099
811.26	7.2801
696.39	8.4853
580.67	9.2195
422.76	8.544
238.16	6.7082
166.54	5.3852
389.83	4
684.48	4.1231
979.5	5.6569
1246.1	7
1471.2	8.4853
1611.4	10.05
1674.3	10.63
1619.4	13
1448.4	14.142
1178.8	15.133
831.06	15.264
416.97	15.232
80.131	13.601
470.72	11.18
876.8	8.9443
1229.6	8
1494.8	9.434
1669.9	12.649
1729.5	15.652
1670.4	17.464
1499.6	18.601
1232.1	19.026
885.31	16.971
481.7	16
78.16	12.806
337.54	12.649
690.93	12.369
981.71	13.454
1183.2	16.031
1300.2	17.692
1321.7	18.028
1246.1	18.385
1075.3	17
839.55	14.866
548.69	12.042
242.77	10.296
183.6	10.296
449.75	11.18
694.91	11.402
874.19	11.045
979.06	10
1004.9	9.0554
947.38	7.8102
821.54	7
659.02	7.2111
506.95	8.0623
449.52	9.2195
538.52	9
689.47	8.6023
842.12	8.2462
938.86	6.7082
967.47	5
918.25	5.831
9146.7	9.2195
9237.9	12.042
8678.9	14.142
7501.9	14.142
5806.3	15.264
3747.4	14.866
1631.4	12.649
1553.3	10.63
3588.9	8.6023
5536.1	12.649
7127.6	19.647
8270.2	25.06
8926.3	27.514
9110.4	24.698
8874.3	19.313
8271.1	12.728
7419.5	15.556
6404.4	25.71
5341.4	37.443
4304.2	45.011
3349.5	48.6
2506.4	46.819
1840.1	41.231
1614.3	31.401
2094.6	21.587
3027	18.111
4100.3	24.187
5128	34.482
5982.4	43.267
6521.7	48.01
6705.5	47.802
6467.2	42.202
5814.2	34.482
4765	25.08
3396.8	23.77
1786.2	29.833
159.93	37
1728.3	41.037
3356.1	40.2
4731.6	33.601
5754.4	25.08
6340.1	17.205
6457.5	13.454
6143.9	14.318
5480	16.125
4635.2	15
3819.3	14.765
3291	16.031
3150.5	18.385
3278.2	19.723
3413	19.105
3398.2	16.643
3200.8	16.279
2858	21.19
2485.7	28.46
2234.6	33.121
2246.9	34.785
2507	31.305
2881.1	24.042
3199.2	16.279
3375.1	13.892
3353.8	16.279
3108.6	18.868
2661.5	17.263
2068.4	12.042
1411.9	5.6569
825.79	8
610.55	15.232
865.02	19.723
1163.2	20.881
1383.6	19.925
1554	19.849
1733.5	25.495
1973.7	33.377
2264.5	41.037
2562.1	46.011
2788.3	48.415
2905.6	47.539
2867.4	46.819
2659.1	48.6
2269.3	51.039
1740.7	53.824
1101.6	54.406
433.2	53.488
205.28	50.478
737.01	48.042
1113.5	45.804
1284.4	45.222
1246.1	43.324
1016.1	40.497
648.78	34.132
270.03	27.659
457.95	20.881
909.37	16.031
1309.6	13.601
1608.7	15
1772.5	15.652
1818.8	16
1748.7	15.232
1609.7	17.029
1473.2	18.682
1398.8	21.84
1416.8	23.431
1507.2	24.021
1588.7	23.022
1606.6	21.024
1510.9	19.026
1302.5	18.358
991.13	20
610.87	23.195
303.31	26.42
439.94	26.926
775.15	25.962
1054.1	23.431
1232.2	21.213
1295.8	21.19
1268.6	22.023
1164	24.021
1044.6	24.839
975.68	23.087
985.3	19.849
1022.1	14
1055.6	7.2111
1016.2	1.4142
865.18	5
615.23	8.0623
274.8	10
209.69	11.402
642.78	12.369
1071.9	14.142
1446.2	18.248
1722.4	21.954
1880.7	25
1887.4	26.42
1741.9	25.962
1475.8	24.698
1094.3	21.587
684.01	18.358
458.86	15.232
706.46	14.56
1104.8	14.422
1459.3	14.318
1702.3	14.318
1808	13.892
1775.7	13
1608.1	12.53
1325.5	11.18
956.56	10.198
572.47	9.2195
394.96	9.0554
644.89	9.434
992.81	10.198
1289.5	10.817
1474.4	12.166
1526.3	12.207
1442.1	12.042
1222	10.63
887.95	10.05
484.88	9.8995
72.56	10
442.22	9.8995
845.84	9.0554
1173.3	8.0623
1387.8	7.2801
1480.3	5.3852
1426.9	5.3852
8498.1	20.224
8241.1	25.807
7512	26.926
6386	23.77
4943	17
3263.4	7.6158
1414.4	5.3852
560.99	12.207
2521.7	16.763
4435.5	18.439
6179.4	15.811
7657	12.806
8758.3	10.817
9411.4	10.77
9568.5	8.0623
9221.4	4
8423.3	10.198
7261.4	22.472
5871.6	35.128
4397.8	46.098
3004	52.173
1852.2	53.666
1089.5	50.695
926.49	44.777
1309.1	39.051
2031.8	37.537
3029.3	39.051
4191.1	41.037
5364.4	39.115
6369.9	34.986
7036	29.155
7209.1	23.087
6828.6	19.925
5849.8	18.385
4366.2	18.028
2493.8	20.616
780.78	25.71
2060.4	33.121
3979.5	39.56
5578.7	43.909
6683	44.385
7217	40.311
7183.9	33.615
6655.7	27.074
5783.8	26.401
4763.3	30.48
3817.1	35.228
3165.4	37.736
2866.8	37.336
2782.8	34.928
2713.2	31.89
2577.4	34.015
2389.1	39.205
2310.3	45.343
2412.9	48.662
2704.2	49.396
3024	47.127
3254.3	41.785
3350	36.056
3281.9	31.064
3085.4	29.069
2793.2	27.295
2449.6	24.083
2088.8	18.601
1696.5	14.213
1293.3	14.422
897.76	21.587
604.44	28.231
703.28	32.65
1067.4	34.928
1453.2	34.828
1777.6	35.057
2009.4	36.892
2176.9	40.162
2320.2	43.081
2487.9	45.695
2658.7	45.695
2795.2	43.658
2815.1	41.146
2675.6	39.217
2343.6	38.484
1821.4	39.56
1172.7	40.719
472	42.379
331.91	43.829
881.01	43.966
1272.6	43.829
1422.2	42.72
1330.9	41.785
1000.6	41.593
494.56	39.294
97.406	36.056
709.19	31.064
1227.9	24.207
1596.8	20.125
1763.4	20.1
1741.2	22.136
1554.3	24.207
1327.5	25.08
1230.4	25.495
1388.7	25.807
1674.4	29.069
1923.3	31.906
2034.1	33.838
1964.2	33.242
1714.8	30.529
1319	27
850.11	25.495
383.54	28.601
96.083	32
319.79	33.302
436.29	32.14
421.56	27.203
405.09	22.136
616.34	19.416
971.99	19.105
1323.9	19.235
1587.3	18.439
1701.8	15.133
1635	11.402
1396.5	9.2195
1011.2	10.44
580.33	13.601
340.96	14.318
542.63	13.342
760.41	10.817
826.23	8.544
712.26	6.3246
474.86	5.831
457.91	5.831
874.14	5.831
1374.6	9.4868
1803.2	15.033
2065.1	20.616
2132	24.515
1983.9	27.295
1650.5	28.16
1239.4	28.302
977.68	28.284
1135	27.659
1535.7	28
1926.2	26.173
2171.1	24.021
2222.6	19.105
2069.7	14
1751.4	7.8102
1305.9	2.2361
825.07	4.4721
442.6	9.0554
478.94	12.728
767.65	15.033
1008.8	17.205
1169.1	18.682
1237.2	19.698
1239.5	21.024
1185	20.881
1062.1	19.723
862.17	18.439
571.63	15.264
201.26	11.18
221.84	7.2111
669.93	4
1071.4	1
1387.7	2.2361
1569.9	4.2426
1585.6	6.0828
6068.1	30
6415.3	33.377
7041.5	33.422
7377.3	30.265
7024.3	24.187
5790.6	21.095
3909.7	22.204
2573.6	25.942
4029.8	26.571
6580.1	24.597
8781.2	18.028
10125	11.18
10443	8.0623
9787.2	10.44
8442.3	12.042
6897.9	11.402
5799.7	12.369
5507.2	22.204
5665.9	36.069
5676.7	50.09
5243.9	60.605
4435.7	66.287
3679.9	66.888
3479.6	63.063
3806.1	57.983
4080.4	52.773
3932.2	48.415
3416.9	43.29
3194.7	35.805
4021.3	25.298
5533.8	13.038
6922.9	7.8102
7709.3	17.804
7592.9	27.019
6528.7	33.302
4731.2	38.013
2946.3	42.521
3221.3	47.676
5297.6	53.535
7317.2	57.489
8667.1	57.983
9133.5	53.367
8716.7	45.177
7589.4	37.59
6038.8	35.014
4406	38.079
3010.9	42.544
2053.6	44.598
1491	41.593
1183.3	37.855
1317.2	32.558
1971.8	32.558
2779.2	36.249
3435.6	39.925
3746.2	42.048
3646.3	41
3191.6	36.235
2608.1	30
2284.4	22.627
2484.1	17.029
2940.3	14.422
3257.3	13.601
3261.2	12.53
2913.4	10.198
2270.3	5.831
1518.3	2
878.33	8.0623
660.61	15.811
760.84	22.136
816.27	26.249
919.54	29.682
1297.2	31.401
1865.9	32.45
2426.5	35.171
2816.8	39.825
2944.7	45.607
2815.6	50.478
2523.2	52.24
2258.6	52.345
2123.3	50.359
2082.8	46.872
1977.7	43.174
1670.2	41.183
1148.1	41.11
637.91	41.785
896.69	43.046
1535.1	43.186
2019.8	42.521
2152.9	40.025
1906.8	36.674
1355	32.311
890.31	28.636
1269.4	25.962
2011.9	25
2597.1	24
2797.5	22.023
2542.7	20.881
1857	19.416
850	22.023
375.17	27.203
1504.4	31.78
2444.3	34.54
3024.2	34.54
3166.8	32.202
2865.7	30.594
2216.6	29
1375.6	29.275
670.34	31.385
810.82	32.573
1252.4	31.305
1409.4	28.792
1252.3	25.08
903.44	22.361
848.37	20.396
1386.3	19.416
2015.6	17.72
2446.9	14.56
2557.9	12.042
2310	10.817
1751.8	11.705
965	12
148.72	13.416
687.03	12.53
1243.3	11.045
1497.4	8.4853
1411.1	5.099
1025.1	3.1623
473.29	2.2361
504.29	6.3246
1150.2	10.44
1717.1	15
2074.1	19.026
2201.9	21.633
2086.9	23.409
1808.3	24.042
1424.9	22.804
1001.9	22
596.21	20.809
362.7	19.313
596.66	19.416
1018.8	19.799
1447.4	19.416
1799.6	20.248
2014.3	19.416
2038.5	18.028
1867.2	14.866
1523.3	11.18
1079.2	7.2111
665.36	3.1623
613.05	3.1623
884.29	7.2111
1154	11.402
1307.5	16.125
1338.2	19.925
1286.8	23.259
1187.3	25.298
1045.5	26.833
856.8	25.632
588.18	24.166
211.8	21.024
257.88	17.464
731.56	14.866
1186	11.18
1535.1	9.0554
1713.1	8.544
1678.6	11.402
5949	8.9443
5724.1	14.866
6302.8	21.541
6983.4	26.926
7056.9	32.388
6143.5	36.069
4374.9	40.2
2831	42.72
4044.7	43.658
6718.7	43.681
9077.6	43.417
10509	42.107
10805	40.311
10038	38.471
8534.9	35.014
6862.8	32.202
5720.8	34.655
5435.3	43.463
5589.2	56.886
5554	71.589
5070.3	84.024
4247.9	91.935
3516.7	94.021
3358.8	91.285
3741.4	82.098
4139	69.354
4196.1	54
3913.8	36.878
3641.5	21.19
3973.3	12.53
4998.1	19.416
6200.4	31.064
7072	40.804
7245	47.676
6565.3	52.202
5097.9	52.24
3397.9	50.21
3256.5	45.177
5258.5	38.588
7584.3	32.202
9325.5	27.074
10135	23.854
9888.6	23.259
8731.9	24.739
6948.9	27.459
4984.9	30.083
3265.5	34.438
2082.2	38.484
1274.5	42.72
407.59	46.872
1026.3	49.366
2511.5	52.402
3919.2	55.009
4877.3	55.973
5124.3	56.321
4534.6	54.037
3200.4	49.254
1463.2	43.278
1301.7	34.059
2963.8	23.431
4260.5	14.318
4826.2	7.0711
4617.5	7.0711
3740.3	9.4868
2536.2	11.18
1469.7	10.44
1160.8	8.2462
1311.4	5.831
1135.2	6.7082
650.28	10.63
1098.5	17.464
2231.3	25.495
3235.9	33.106
3807.2	40.262
3768.2	47.202
3124.3	52.086
2069.3	55.227
1201.9	56.719
1670.5	55.073
2573.9	53.31
3120.4	50.448
3120.3	46.861
2630.2	43.186
1916.3	40.249
1530.8	38.275
1870.6	37.054
2393.5	36.674
2629.3	36.056
2454	36.056
1910.7	35.847
1242.9	34.928
1044.4	32.985
1558.1	30.806
2129.3	27.295
2435.6	25.239
2388.6	23.087
2009.4	23.087
1344.4	25
620.14	28.018
793.59	31.113
1628.6	34.015
2351.9	36.069
2808.8	37.014
2896.7	36.069
2612.9	35.014
2007.8	33.302
1201.7	32.14
473.36	30.61
712.67	29.275
1172.5	28.425
1329.4	26.019
1145.3	23.345
789.18	20.396
851	17.464
1446.5	15
2040.1	13.153
2399.2	12.649
2405.9	12.806
2053.7	13
1421.4	13
656.47	12.53
201.47	11.402
749.49	9.4868
1098.7	8
1168.1	7.0711
974.23	7.0711
590.06	7.6158
151.57	8.6023
380.44	9.2195
821.88	10.296
1214	12.166
1576.3	14.56
1880.6	17.692
2072.5	19.925
2099.8	21.84
1924.3	24.083
1553.3	25.179
1116.7	24.597
887.32	23.854
1111.1	22.091
1484.2	19.313
1742.9	18.385
1823.2	16.155
1743.3	16.031
1578.9	14.765
1392.4	13.892
1199.4	12.042
962.24	8.4853
661.6	6
463.2	2
721.92	4.4721
1170	10.05
1543.9	15.62
1728.2	20.224
1700.3	25.239
1466.8	27.893
1080.7	29.069
641.21	29.155
236.76	26.571
157.54	23.259
409.76	19.313
679.48	15.524
984.04	12.042
1287.5	10.77
1516.5	11.045
1589.8	13.038
2420.4	8.0623
2564.1	13.928
3406.5	18.358
4224.4	23.537
4777.2	27.459
5117.7	31.78
5401.2	34.986
5826.6	38.079
6422.4	39.962
7104	40.262
7667.7	40.311
7951.4	39.217
7812.1	38.626
7219.7	36.715
6233.8	34.234
5045	31.401
4069.2	33.541
3874.4	42
4527.8	55
5470	71.197
6212	86.4
6527.4	97.252
6342.4	102.55
5716.9	100.6
4757.7	92.914
3672.4	79.555
2716.3	61.774
2247.4	42.755
2444.2	27.803
2981.7	23.345
3538.4	31.385
3981.8	42.048
4288.3	51.624
4486.5	57.035
4580.6	59.034
4599.4	56.294
4602.3	49.659
4736.3	39.962
5223.6	28.16
6142	20.1
7358.6	19.235
8555.5	24.597
9416.9	30.529
9664.4	35.355
9129	38.833
7783.8	41.976
5732.9	47.011
3215.1	50.596
547.88	54.129
1929.9	56.303
3896.7	56.365
5154.1	55.973
5590.6	54.589
5252.3	52.393
4300.2	48.6
3006.8	44
1756.5	38.275
1456.6	31.305
2243.3	25.02
3096	19.235
3663.3	13.601
3896.6	9.0554
3782.4	4.4721
3332.1	2.8284
2594.3	5.831
1665.2	10.44
758.05	13.601
790.24	15.62
1532.7	16.279
2114.5	16.763
2406.5	17.692
2422.2	21.024
2245.3	25
1988.8	31.305
1773.3	39.661
1613.1	47.043
1444.6	53.339
1221.5	58.138
972.05	60.407
887.6	60.308
1092.1	57.28
1456.2	51.923
1826.7	45.967
2112.9	39.56
2295	34.366
2362.3	32.249
2316.3	31.89
2189	33.838
2095.7	36.222
2120.6	37.443
2299	37.577
2538.9	36.222
2702.4	33.302
2680.1	28.636
2423.6	24.698
1946.4	22.361
1329.2	22.023
721.83	25.08
583.47	28.425
1002.9	32.558
1419.9	35.355
1723.5	36.77
1905	37.643
1980.1	37.736
1949.1	36.674
1810.2	36.401
1549.2	35.128
1162.4	33.242
718.59	30.067
381.81	26.627
573.32	22.472
979.05	18.248
1318.5	14.422
1563.3	13.601
1695.6	13.928
1729.1	16.031
1679.2	17.493
1544.6	19.235
1341.2	18.028
1071.8	15.264
776	10.296
479.77	5.3852
225.72	4.1231
115.41	9.8489
232.65	13.454
357.32	14.318
473.47	13.601
595.41	9.2195
737.03	2.8284
887.82	5.831
1057.7	13.342
1238.7	20.248
1406.5	25.807
1546.7	29.017
1615.1	29.155
1626.8	27.731
1562.3	24.083
1455.5	18.868
1332.4	14.866
1231.7	12.806
1161.3	15.264
1128.8	20.396
1128.4	23.77
1156.9	24.759
1190.9	23.345
1213.4	20.616
1214.4	14.765
1171.8	8.544
1110.1	4.4721
1039.1	7.6158
985.48	13
951.95	16.763
937.62	19.209
912.63	20.224
887.42	20.616
877.68	20
873.04	20.1
888.4	19.698
888.37	20
848.37	20.025
799.05	18.868
724.8	17.088
679.83	13.928
660.31	11.18
692.69	10.817
757.7	13.892
1903.8	12.207
2457.8	21.587
3157.8	29.682
3744.2	34.234
4214.6	36.797
4690.3	36.056
5236.7	35
5899	31.78
6631	29.967
7343.9	29.53
7908.2	29.155
8136.3	29.206
7900.5	30.364
7122.4	29.732
5845.3	29.069
4276.5	26.833
3028.2	30
3138.4	40.311
4343.3	56.648
5579.6	76.485
6372.4	95.079
6570.2	109.4
6238.8	116.04
5540.6	114.48
4726.3	104.56
4041.1	86.764
3568.4	65
3281	41.146
3109.2	25.179
3103.1	27.074
3369.3	37.59
3841.3	46.325
4338.5	49.679
4681.8	47.381
4794.8	42.72
4744.2	38.21
4735.3	34.482
4997.3	34.525
5618.9	35.693
6504.6	36.401
7454.6	34.438
8271.8	31.016
8793	25.942
8883.2	23.345
8448.1	22.847
7408	26
5794.7	32.45
3706.8	38.601
1367.7	47.424
1203.5	56.08
3311	64.257
4936.8	71.12
5840.4	73.98
5930.4	73.6
5239.3	67.119
3954.6	55.902
2450.3	41.437
1770.3	25.554
2688.1	9.4868
3843.9	4.4721
4565	14.318
4682.3	20.248
4203.4	21.541
3258.9	20.248
2037.9	19.105
786.11	21.84
617.57	26.907
1441.4	32.016
1937.7	34.655
2054.5	32.062
1859.1	25.239
1552.6	13.892
1419.4	8.0623
1626.7	23.087
1927.3	41.049
2067.1	56.648
1918.1	69.376
1459.8	75.286
771.53	75.166
432.09	69.462
1199.1	57.706
1987.8	43.012
2562.4	29.833
2848.6	26.476
2841.6	32.985
2585.6	42.202
2205.2	47.854
1877.6	49.163
1769.2	45
1908.1	37.162
2136.4	27
2314.4	19.416
2380.6	17.72
2302.1	21.954
2081.3	25.942
1726.5	28.862
1275	31.765
842	35.468
742.57	40.497
1092.6	46.098
1527.2	49.244
1881.2	49.041
2074.7	45.804
2098.2	40.012
1967.8	33.015
1725.1	25.08
1401.7	20.025
1026.1	18.385
618.97	19.799
222.52	23.087
350.71	26.926
779.24	29.069
1170.1	29.155
1479.3	25.495
1674.3	20
1736.3	12.649
1674.6	8.0623
1514.2	11.314
1291.2	17
1036.2	20
781.83	18.868
559.73	13.928
382.34	6.7082
271.03	4
248.57	10.817
324.78	16.279
459.24	19.105
628.6	17.029
812.43	10.63
999.6	4.2426
1167.5	11.18
1298.4	21.541
1392.6	30.017
1432.6	35.128
1448.1	36.878
1446.8	33.526
1434.7	26.683
1427	17.804
1409.9	8.6023
1380.3	10
1331.7	18.248
1263.1	25.239
1187	28.636
1109	28.16
1069.7	25
1053.4	19.313
1083	12.369
1117.3	5.831
1143.9	3
1139.4	7.2111
1099.6	11.045
1022	13.928
926.31	16.279
843.42	19.235
776.62	21.095
763.25	22.136
780.77	22.672
821.94	22.472
861.73	21.095
875.67	19.416
872.65	17.889
850.37	15.133
792.27	12.042
726.28	11.045
673.24	11.18
691.18	14.318
1416.5	10.44
1726.8	18.248
2698.7	27.459
3708.4	34.785
4643.1	40.497
5472.4	42.438
6239.6	42.048
6947.5	40.608
7600.1	36.688
8119.9	32.016
8364.3	27.586
8210.5	23.77
7566	22.023
6438.2	21.954
4938	21.932
3350.8	22.847
2339.3	27.659
2720	39.051
3781.3	55.227
4728.9	75.717
5301.1	94.578
5481.4	109.64
5283.6	118.34
4778.5	119.08
4024.6	110.02
3161.3	93.15
2385.6	69.462
1992.1	44.688
2129.2	25.495
2502.6	27.514
2856.7	39.85
3128.3	47.434
3415.8	50.249
3794.4	46.487
4303.3	40.05
4891.5	36.222
5529.1	37.108
6181	40.706
6847.6	43.186
7454.8	42.059
7915.3	36.346
8127.8	28.302
8046.2	20.616
7655.2	14.422
7009.7	16.643
6154.4	23.345
5078.7	32.311
3738.3	41.677
2147.2	53.46
751.02	63.64
2034.6	71.847
3827.4	76.479
5242.5	77.369
5998.7	72.691
5962.8	62.968
5153.1	50.22
3822.9	35.468
2680.9	19.416
2874.2	5.099
3995.4	6.4031
4911.3	15.133
5140.2	20.248
4612.3	21.84
3446.2	21.095
1926.1	20.1
634.66	22.023
1299.1	24.515
2087.3	28.018
2329.2	29.069
2047.3	26.401
1530.8	20.125
1409.1	11.705
1924	11.662
2469.1	24.187
2686.7	39.699
2479.4	54.818
1888.7	65.513
1090.3	73.11
543	73.926
1061.3	70.064
1706.6	60.374
2162.6	48.104
2418.6	34.67
2493.8	28.018
2438	31.241
2257.1	38.471
2025	44.407
1822.3	46.84
1793.2	43.863
1990	37.336
2292.2	28.071
2530.1	19.313
2598.3	13.928
2465	15.811
2155.6	22.672
1721.3	28.16
1251.7	34.015
827.27	39.812
626.33	44.385
817.29	48.01
1184.9	50.09
1550.3	48.918
1839.3	46.098
2001.9	39.925
2008.9	32.202
1880.3	24.515
1635	19
1305	19.026
916.12	24.042
476.02	29.732
153.12	32.894
583.55	33.734
1080.2	30.414
1503.9	23.77
1803.1	14.318
1935	4.1231
1909	7.6158
1722.7	15.556
1433.8	20.396
1113	20.248
792.24	17.493
494.71	11.18
212.64	7
112.26	9
386.26	14.213
661.25	16
889.74	15
1038.9	11.402
1104.9	6.4031
1111.5	5.3852
1068.9	13.038
1031.9	19.235
1035.3	24
1087.8	27.313
1187.4	28.284
1302.8	27.731
1398.9	26.173
1463.1	22.361
1474.8	17.464
1438.8	12.083
1394.2	11
1340.7	17.117
1318.9	24.331
1328.8	28.844
1323.7	30.887
1310.4	28.018
1260.4	21.401
1199.9	14.036
1127.3	10.44
1055.5	14.213
974.34	18.028
883.04	19.416
784.97	17.493
698.62	14.866
638.1	14.318
631.67	18.788
678.39	24.331
781.59	27.893
901.08	29.732
1005.6	27.514
1054.3	22.561
1020.2	16.279
921.73	11.045
778.23	8.0623
671.49	8.544
709.51	10.63
2040.7	19.698
3542.4	19.416
5323.3	24.083
6332.9	32.802
6495.7	41.049
6195.7	47.802
6126.5	50.695
6777.9	49.254
7812.8	43.417
8579.7	36.125
8601.1	29.069
7745.7	24.352
6138.4	22.204
4120	19.416
2257.7	16.401
1461.6	15.652
1809	26.077
1950.7	43.012
1765.3	63.695
2036.4	84.717
3071.1	102.42
4208.7	114.06
4908.5	119.21
4901.3	115.12
4116.9	104.2
2713.2	86.284
1072.8	64.537
1015.6	43.29
2174.6	30.61
2715.3	29.547
2472.2	34.176
1719.7	36.674
1872.9	35.511
3495.8	33.242
5340.9	33.601
6831.9	37.121
7715.4	40.025
7969.7	41.11
7796.4	38.079
7534.4	32.802
7472.6	27.586
7619	24.839
7707	25.807
7455.3	29.547
6721.6	32.14
5570.7	33.242
4202.1	34.409
2906.3	37.443
2035.4	41.976
1786	50.22
1964.7	59.666
2329.3	69.289
2849.3	76.485
3444.5	79.209
3990.2	75.928
4378.7	66.483
4608.1	50.774
4749.4	31.575
4894.2	14.318
5035.4	16.279
5042.4	28.792
4772.1	36.249
4163.1	38.079
3254.5	36.249
2259.9	33.956
1510	32.65
1404.2	34.015
1580.4	33.302
1555.7	27.659
1250.5	17.72
942.32	5.099
1139.1	12.649
1628.4	25.807
1957	35.228
1944.9	41.485
1573.7	45.011
943.45	50.804
243.29	58.31
366.39	66.843
649.26	71.694
550.28	69.721
231.87	60.877
892.45	43.829
1846.8	24.839
2752	19.026
3376.1	34.525
3609.4	50.488
3423.1	59.363
2886.7	58.31
2205.9	49.163
1634.6	34.176
1445.2	16.643
1533.1	10.77
1631.6	23.259
1701.3	34
1824.1	39.661
2039.2	42.379
2230.9	43.081
2234.1	43.829
1985.8	45.122
1495.9	46.755
999.3	45.891
953.88	43.417
1359	39.408
1726.9	35
1866.5	31.305
1750.3	29.732
1491.3	29.614
1251.9	31.016
1142.7	32.016
1080	30.529
951.89	27.803
714.95	22.804
658.06	16.279
1029	7.8102
1509.4	0
1855	7
1965.8	11.662
1807.9	13
1419.1	12.649
912.01	10.77
419.03	11.402
172.07	13.038
279.16	14.866
293.9	15.033
355.53	13.038
677.1	8.2462
1091.4	4.4721
1416.4	8.0623
1556.5	13.342
1459.7	18.439
1150.4	21.541
798.35	24.021
813.53	24.352
1242.1	23.601
1675.7	22.204
1917.4	19.647
1900.5	15.033
1650.8	9.4868
1246.6	3
893.28	6.3246
917.27	12.53
1198.3	17.804
1427.8	21.378
1479.3	23.087
1331.3	22.672
1060.8	20.224
833.7	17.493
856.71	15.524
1078.3	15.652
1250.9	15.232
1286.2	14.318
1152.4	12.207
895.24	9.2195
642.89	7.8102
614.49	11.18
809.01	17.029
1021.9	22.361
1140.1	25
1131.3	25.942
1000.5	24.698
790.76	21.024
561.44	17
452.93	12.53
537.08	10
713.49	8.9443
1359.6	20.224
807.01	30.414
2921.6	40.112
4629.3	48.021
5588.7	50.537
5633	49.041
4871.6	42.942
3972.8	34.828
4136.5	26.401
5501.5	21.84
6940.8	20.1
7691.8	19.416
7420.7	19.209
6162.3	18.974
4190.4	21.19
1987.2	26.401
744.41	34.525
1756.8	46.325
2183	61.221
1705	77.827
830.06	93.048
1802.2	104.28
3437	111.04
4677.1	109.84
5152.3	101.53
4789.3	87.693
3774.2	70.342
2630.2	52.202
2209.4	37.014
2557.9	27
2694.7	22.672
2275.5	22.561
1989.6	24.739
3165.8	26.627
5058.3	27.019
6689.2	26.42
7534.9	25.495
7353.3	28.231
6301.4	32.28
5110.5	37.121
5188.3	38.639
6773.4	34.928
8574.4	27.785
9665	24.352
9623.1	31.257
8448.2	44.385
6392.6	55.57
3916.7	63.127
1574.1	64.257
479.21	62.201
1149.8	58.856
896.28	58.694
337.42	61.717
2196.3	64.405
4288	65.192
6148.7	61.717
7382.8	56.436
7768.3	51.088
7280	45.044
6125.3	41.34
4705.9	38.471
3635.8	41.012
3360.1	48.374
3520.3	57.94
3448.9	66.708
2844.7	67.052
1755.3	59.363
441.55	42.579
1034.1	21.471
2111.3	15.033
2702.8	32.573
2724.8	47.17
2209.2	50.22
1321.9	42.297
283.09	24.187
681.12	17.804
1290.7	40.311
1431.8	65
1072.1	80.505
274.32	84.202
812.25	75.027
1941.8	54.571
2905	27.459
3507	11.045
3665.2	31.575
3367.2	48.301
2709.7	54.203
1863.5	50.01
1077.3	37.162
755.73	21.095
1047.7	16
1468.2	26.173
1901.1	33.734
2338.8	34.67
2715.1	29.206
2907.6	21.401
2808.9	25.612
2386.6	38.949
1693.2	53.16
972.06	63.063
902.33	68.015
1469.9	65.376
1939.8	57.454
2108	44.944
1967.6	27.514
1614.2	9.2195
1209.8	11.662
927.64	27.514
761.47	38.588
549.87	44.181
272.8	41.869
559.05	35.171
1162.9	23.409
1718.9	8.6023
2076.6	5
2144.3	14.765
1933.2	19.235
1481.5	19.026
934.5	13.038
569.06	4.2426
655.79	7.8102
830.02	16.553
841.07	22.204
721.28	23.345
622.75	20.1
682.01	14.213
803.54	12.207
827.62	17.72
730.5	24.166
657.06	28.862
840.98	30.48
1175.8	27.295
1462.8	21.541
1578.2	14.142
1525.3	8.6023
1379	7.2111
1319.5	9.2195
1461.5	10.44
1687.1	9.4868
1826.6	8.544
1782.3	7.0711
1544.5	9.8489
1237.9	13.601
1080.5	18.385
1216.1	21.954
1460	24.083
1616.3	24.413
1606.1	24.166
1434.5	23.087
1194.5	20.248
1036.7	16.643
1058.7	12.369
1175.5	8
1259.7	5.3852
1247.4	7.8102
1136.3	12.083
981.88	16.031
867.55	19.313
856.76	19.849
915.87	20.616
953.76	19.235
937.27	18.028
825.64	16.401
639.08	14.866
414.57	15.033
266.91	15.524
5722.4	27.019
5478.1	31.623
5348.3	34.438
5180.1	36.014
4618.5	36.674
3416.1	37.014
1669.8	35.903
1307.4	34.205
3438.5	31.145
5398.4	26.926
6628.9	20.025
6923.4	15.033
6282.9	16.279
4940.1	25.179
3357.5	36.878
2286.2	48.01
2356.6	57.306
2789.9	63.198
2815	66.098
2355.5	67.801
1642.6	71.61
1052.9	77.795
848.88	85.094
743.6	93.915
887.51	97.801
1817.9	98.005
3063.7	90.62
4173.8	78.6
4712.2	61.4
4401.5	42.154
3132.4	23.431
1128.5	13
2030.2	20.1
4817.3	29.967
7250.5	34.67
8793.3	33
9094.5	24.413
8034.2	12.369
5757.6	3.1623
2758.7	17.029
2025.2	28.862
5025.4	33.615
7675.8	30.529
9286.6	19.416
9635.2	6.3246
8773.9	22.672
6948.2	44.407
4566.4	61.27
2070.3	71.021
149.21	69.181
1844.5	57.245
2982.1	41.677
3708	37.643
4322.1	54.818
4987.5	76.276
5668.3	91.241
6162.9	93.343
6331.6	83.546
6099	65.069
5550.9	48.021
4819.5	50.931
4046.3	69.426
3297.5	87.092
2582.2	94.43
1885.8	88.414
1351.1	70.576
1256.5	47.011
1605.1	27.203
1956.3	30.364
2120.4	44.272
2081.8	50.329
1996.5	45.222
2031.8	30.067
2220.7	9.0554
2385.7	17.263
2346.1	38.639
2021.4	55
1457.8	63.506
1053.2	63.008
1463.5	56.365
2292	44.598
3050.4	31.016
3546.5	18
3706	5
3508.5	8.2462
2990.9	19.849
2228.9	29.967
1277.2	37.014
327.84	39
864.16	33.971
1764.9	23.77
2466.5	10.77
2883.8	11.045
2975.6	24.021
2784.3	32.28
2383.2	35.228
1925.7	33.242
1586.9	31.828
1436.8	39.699
1394.7	53.413
1323.8	66.098
1205.6	72.56
1178.4	70.214
1339.2	57.775
1598.9	38.639
1782.9	15.652
1797.8	16.155
1611.6	35.171
1264.4	48.847
830.54	54.378
395.43	50.09
311.71	38.949
698.6	24.021
1156.2	13.601
1600.1	16.763
1956.2	22.804
2157.2	24.331
2093.5	21.095
1724.1	13.153
1072.8	8.0623
217.87	13.153
689.19	21.26
1500.8	25.179
2049.5	24.413
2237.5	22.204
2016.1	19.105
1434.1	18.682
609.07	21.541
358.11	24.698
1139.7	26.627
1678.8	25.02
1850.6	21.541
1631.5	16.279
1087.4	12.806
336.88	10
471.5	9.434
1120	9.8489
1504.6	10.05
1551.1	8.544
1275.1	6.4031
762.08	6.0828
159.39	6.3246
496	10.296
904.46	15.264
1060.2	20
930.14	24.187
572.85	26.077
153.44	27.166
462.21	24.698
814.44	21.213
958.63	15.652
837.38	10.44
485.67	6.7082
4.1231	7.0711
516.1	9.2195
920.29	12.042
1106.2	15.264
1040.5	17.72
719.82	20
228.19	21.84
339.12	22.204
825.14	20.809
1135.8	18.974
1182.6	16.125
973.36	14.036
584.75	14.142
6172	34.205
6601.2	45.277
6476	53.038
5664	56.569
4189.9	52.773
2223.7	42.19
927.52	26.173
2770.1	11.705
4681.3	19.723
6009	34.059
6603.8	41.773
6441.8	42.72
5681.9	33.601
4530.6	16.279
3230.8	9.4868
2014.7	34.366
1281.4	59.615
1599.5	80.212
2409.2	91.269
3104	91.285
3398.9	80.156
3130.5	63.071
2251.8	53.666
1027.5	67.231
1505.2	92.445
3222.1	114.27
4675.8	124.2
5441.3	118.47
5287.7	96.881
4217.7	63.702
2697.7	26.306
2612.2	21.024
4664.1	48.549
6889.9	66.408
8453.5	69.289
8969.1	57.706
8300.2	38.91
6531.5	30.364
3930.6	42.048
999.23	57.201
2297.4	62.29
4924.7	55.227
6867.3	39.623
7944.2	29
8116.6	41.976
7493.3	63.008
6259.8	76.655
4670.4	78.109
2977.9	67.357
1628	46.573
1688	21.213
2777.3	19.925
3865.3	44.777
4750.7	64.444
5378.2	76.158
5752.5	80.362
5895.2	75.822
5824.9	66.483
5565.8	57.14
5130.1	50.01
4553.9	48.6
3906.6	53.46
3248.6	59.076
2662.5	64.195
2171.5	63.906
1741.6	59.682
1327	52.953
997.81	45.486
985.39	39.85
1369.5	36.401
1865.6	33.121
2276.7	28.636
2511	22.672
2542.9	17.088
2384.5	20.1
2069.5	28.653
1686.5	36.878
1389.3	43.186
1395.2	44.911
1775.4	43.012
2349.3	40.311
2919.8	36.056
3356.7	32.249
3549.5	28.601
3443.9	25.632
3018.9	23.087
2295	19.723
1369.5	17.464
405.94	16.125
831.32	12.649
1722.2	10.44
2411.1	10
2825.8	10.05
2923.1	9.434
2748.4	8.4853
2368.6	9.434
1891.5	15
1477.4	22.804
1260.2	31.321
1226.6	38.21
1245.2	42.485
1231.8	45.343
1203.4	45.541
1284.2	44.045
1514.1	39.825
1782.6	31.385
1960.6	20.224
1948.3	13.038
1698.9	21.587
1227.5	35.511
572.88	47.17
280.22	52.631
980.76	51.088
1612.5	42.048
2048.6	29.732
2222	18.028
2117.1	19.925
1764.9	30.083
1229.5	36.235
655.8	36.056
539.59	30.871
989.7	23.195
1409.5	20.616
1641.9	28.32
1648.6	37.014
1441.4	42.638
1076.2	42.45
670.36	36.401
502.29	26.627
734.24	16
1026.6	6.4031
1184.4	1.4142
1181.1	5.3852
996.52	6.3246
720.22	7.0711
461.7	8.2462
513.87	11.18
786.68	12.369
1022	10.63
1126.2	7.2111
1080.6	6.7082
910.62	11.705
652.85	19.105
429.84	24.698
419.68	28.284
556.8	29.206
655.69	26.926
643.12	22.361
525.13	16.279
373.94	10.44
362.27	5.3852
516.18	1
677.04	1.4142
757.83	3.1623
750.68	3
674.71	3.1623
589.29	6.0828
594.25	9.0554
670.09	12.53
747.22	15
776.34	16.492
748.55	16.279
705.78	15.264
719.97	12.728
827.35	9.8995
965.4	10
3982.8	18.868
4860	33.526
5555.6	50.596
5758.1	63.253
5293.9	69.462
4138.4	64.475
2530.7	48.01
1788.5	23.195
3375.6	7.8102
5370.8	36.235
6888	58.034
7612.5	66.888
7404.3	60.415
6264.3	37.014
4371.2	2.2361
2006.1	38.949
462.48	77.026
2621.2	105.82
4152.6	118.34
4811.3	111.07
4525.5	86.925
3384.4	50
1723.5	30.017
1279	62.298
2976.1	99.045
4458.3	122.67
5229	129
5119	118.27
4217.8	95.016
2957.3	65.192
2586.3	41.34
3909.6	38.949
5628.3	51.264
6967.3	59.615
7626.8	60.539
7504	56.08
6643.7	49.649
5167.7	44.553
3259.8	42.45
1330.9	41.11
1850	37.802
3925.2	34.205
5818	33.838
7196.4	37.443
7877.5	43.738
7739.6	50.537
6771.5	53.339
5121.3	51.01
3020.4	44.283
1005.9	32.558
1737	17.889
3379	8.0623
4534.9	23.087
5145.2	40
5351.4	55.543
5405.5	66.603
5498.9	73.246
5680.2	75.69
5802.5	74.25
5694	69.231
5269.1	64.405
4530.2	60.415
3565.7	58.523
2492.7	58.83
1468.6	60.531
671.73	60.811
526.71	57.706
814.42	51.884
1035.5	43.382
1263.5	32.757
1703.3	22.204
2349.7	13.928
3039.3	11.18
3562.1	14.56
3746.7	19.235
3514.7	22.825
2947.7	26.019
2351.1	29.155
2288.5	33.242
2870.8	38.275
3529.8	43.29
3854.4	46.043
3688.6	46.065
3091.8	43.046
2300.6	35.228
1724.7	26
1665.7	14.56
1734.2	6.3246
1463.7	5.099
732.15	7.2111
501.73	6
1746.7	2.8284
2884.6	9.0554
3618.4	18.358
3754.9	25.239
3253.5	28.443
2205.3	26.476
861.78	21.932
616.94	19.313
1671	23.77
2233.9	33.541
2158.7	43.186
1471	47.539
390.51	48.083
981.16	44.204
2124.4	37.054
2881.3	31.241
3074.5	28.636
2685.4	30.414
1862.1	32.985
1006.6	34.713
1191.7	34.366
1955.8	32.311
2443.1	28.601
2476	24.021
2075.8	19.209
1420.2	16
794.21	15.264
619.86	18.385
737.4	22.136
634.97	24.597
213.46	25.962
429.7	28.302
1133	30.414
1699.1	33.422
1994.2	36.346
1959.3	37.443
1639.9	37.643
1275	33.242
1249.7	26.926
1587.2	19.105
1914.7	9.8995
2001.7	1.4142
1814.1	8.0623
1424.8	13.454
1047.5	17.117
979.13	18.358
1162.7	17
1302.1	13.038
1255.6	6.7082
1018.4	3.1623
676.29	9.8995
332.74	17.464
154.04	24.083
202.27	28.018
183.22	29.967
157.47	28.071
284.3	24.413
440.96	18.385
506.63	11.402
451	5.3852
296.38	4.1231
305.49	5.6569
557.91	5
815.04	3.1623
972.81	2
975.68	7.0711
854.34	13.038
690.05	17.493
634.15	19.105
754.16	18.682
920.13	15
1020.2	10
1019.5	6.4031
942.91	7.0711
856.41	11.045
2794.7	54.083
5086.3	44
6598.4	34.132
7141.1	33
6875.9	41.304
6296	46.141
6071.2	41.183
6403.1	27.893
6821.8	17.263
6741.1	30.414
5929.1	49.396
4471.2	60.671
2769.5	58.898
1575.7	45.541
1666.8	33.061
1973.9	49.649
1809	82.073
1557	109.66
2129.4	124.68
3172.4	120.54
3947.8	97.268
4100	58.31
3602.5	25.942
2801.6	57.567
2654.3	101.53
3598.6	132.85
4808.5	146.81
5727.1	140.8
6271.4	117.69
6618.1	83.672
6984.1	47.76
7366.7	24.597
7551.3	36.892
7270.9	51.971
6397.7	57.315
5038.7	53.852
3497.1	46.011
2223.6	37.108
1590.1	29.53
1447.9	21.26
1700.1	10
2783.4	11.402
4465.2	30.067
6182.7	48.374
7451.5	64.498
7896.7	73.007
7337.4	72.719
5836	63.063
3690.9	46.39
1480.2	26.249
1621.9	12.042
3132.5	24.083
3994.9	40
4103	52.479
3853.9	58.31
3992.5	60.299
4883.9	60.083
6070.6	58.796
6972.4	56.798
7243.6	57.009
6788.9	57.697
5691.8	60.216
4194.8	63.198
2603.3	65.765
1363.6	68
1168.9	69.354
1488.4	66.708
1470.9	61.847
1033	52
793.53	41.146
1667.4	29.155
2810.4	22.023
3759.2	23.259
4273.7	27.731
4226.1	29.069
3653.4	25.179
2782.4	16.155
2228.1	12.042
2605.8	24.515
3412.3	39.812
3965.5	53.075
3980.5	60.638
3432.1	61.327
2504.7	56.356
1620.4	47.539
1443	36.235
1826	25.06
1962.5	18.248
1602	17
878.6	20.881
948.82	27.586
2030.7	33.377
3017.9	38.275
3567.7	39.051
3572.2	35.511
3023.6	27.203
2065.3	16.125
931.12	16.031
482.27	28.46
1232.2	41.593
1677.5	50.16
1681	52.631
1292.1	47.508
704.06	37.483
630.12	25.71
1263.1	16.763
1833.5	19.235
2159.6	26.42
2194.3	34.015
1955.1	39.217
1516.1	43.863
998.94	47.927
714.44	51.264
977.44	52.802
1396.9	50.695
1677	44.385
1739.7	36.401
1584.1	26.926
1287.6	21.024
995.07	18.788
833.64	17.889
768.94	15.652
629.15	12.042
329.37	11.402
369.09	19.416
961.32	30.083
1565.8	39.051
2000.6	44.102
2170.1	45.222
2032.1	41.231
1640.4	34.132
1183.6	26.077
1048.5	21.471
1365.5	22.672
1731.4	27.459
1904.1	30.887
1812.3	31.321
1481	27.295
1009.9	21.541
530.81	15.133
244.2	14.56
383.6	19.209
531.46	25.318
598.75	29.069
627.95	30.15
649.57	28.653
636.96	24.698
553.05	19.105
371.04	14.56
159.15	11.18
267.28	9.2195
536.27	7.8102
741.93	6.7082
864.45	5.3852
876.55	5.3852
779.58	7.2801
604.67	9.0554
372.94	10
241.01	10.77
466.01	10.44
781.18	7.8102
1048.8	6.0828
1204.8	3.6056
1228.6	2.2361
1125.7	2.2361
980.91	2.2361
2628.9	44.045
4051.3	36.878
5440.8	26.306
6532.6	16.155
7219.4	12.166
7528.4	15.133
7503	18.601
7232.8	22.361
6718.8	26.249
5961.6	32.016
4924.1	37.483
3646.4	40
2246.2	36.878
1073.8	34.54
1186.6	43.012
1974.5	63.514
2507	87.864
2701	107.62
2739.1	117
2878.1	113.7
3234.8	98.153
3643.2	76.42
3855.5	63.906
3762.5	79.057
3438.8	107.06
3323.9	131
3917.3	141.82
5120.4	137.64
6459.1	118.27
7532.4	89.872
8109.2	59.304
8071.1	32.757
7456.2	22.627
6393.9	25
5091.5	25.612
3794	21.932
2689.8	22.825
1925.3	31.385
1682.8	40
2158	43.909
3176.8	44.011
4403.6	40.719
5541.2	41.231
6354	45.222
6665.5	51.42
6418.6	55.714
5664.3	54.037
4605.7	49.244
3565.2	41.773
2886.3	32.45
2674.2	21.954
2606.4	12.649
2390.6	14.56
2045.3	28.636
2007.9	44.283
2584.5	58.523
3480.6	66.573
4284.3	70.406
4828.4	69.462
5047.5	67.417
4983.1	67.417
4720	71.421
4305.5	76.479
3748.5	79.228
3037.2	77.078
2200.3	70
1470.9	59.034
1451.6	48.415
2067.3	40.2
2673.2	35.468
3000.4	33.136
3023.9	31.906
2917.8	28.636
2987.9	24.021
3406.1	18.788
3999.3	14.213
4474.4	10.63
4631.1	10.63
4394.5	15.62
3788.7	22.136
2925	31.401
1959.1	40.361
1045.7	48.765
306.11	55.66
314.55	58.412
706.78	54.083
1035	44.102
1350.6	28.862
1655.8	13.416
1889.8	21.213
2021.4	38.21
2047.9	51.352
1980.2	56.08
1864.7	52.555
1736	42.154
1606.6	27.659
1483	22.136
1364.3	33.601
1259.1	47.297
1157.6	55.803
1056.2	58.034
994.25	53.263
1052.9	42.202
1269	28.636
1584.5	13.038
1890.2	2.2361
2099.1	15.232
2172.2	28.16
2109	39.661
1936	49.254
1723	55.866
1499.6	59.54
1315.4	58.669
1151.2	52.924
1008.2	45.88
882.18	35.511
816.71	26.926
825.75	21.541
861.38	19.723
885.08	18.682
865.3	16.763
807.09	13.601
753.07	12.207
712.36	16.125
732.45	24.042
823.82	32.573
988.59	38.639
1214	41.725
1442.2	41.773
1624.5	38.471
1718.1	33.526
1700.4	28.302
1595.9	25.02
1451.9	25.239
1324.9	26.249
1265.1	27.313
1248.3	26.926
1237.3	24.166
1178.1	19.698
1064.2	15.133
905.54	14.422
728.22	16.155
548.14	18.385
374.22	20.396
222	20
89.157	20.248
81.222	20.881
156.03	23
202.92	23.77
234.09	22.672
267.9	18.439
327	11.402
403.11	2.8284
468.55	7.2801
515.06	14.56
558.61	19.849
612.03	21.213
697.94	18.788
791.69	12.53
881.97	5.3852
946.28	3.1623
962.02	7.8102
963.59	10
947.1	9.2195
941.22	6.3246
950.26	7.2801
3194.6	42.953
4307.2	36.056
5563.9	24.759
6690	12.042
7486.2	14.036
7861.4	28.018
7772.9	39.812
7273.5	46.4
6447.3	47.17
5391.4	41.183
4237.9	31.623
3074.5	22.672
1999.5	27.313
1139.5	41.976
901.8	58.6
1401.7	72.719
2042.2	83.006
2609.6	88.204
3044.6	88.238
3307.8	84.404
3394.6	76.844
3333.6	71.805
3232	74.686
3278.6	86.006
3627.9	101.77
4281.2	117.34
5097.1	127.64
5911.9	130.02
6589	123.6
7028.4	108.81
7209.2	88.6
7088.6	64.498
6695.2	41.761
6085.6	24.042
5335.3	17
4545.6	15.556
3835.6	13.416
3337.3	12.53
3143.7	23.409
3268	40.497
3621.1	56.648
4079.6	70.491
4537.5	76.236
4915.5	75.928
5175.1	67.446
5308.1	54.083
5332.3	37.202
5272.3	21.024
5103.3	7.6158
4757.1	3
4154.6	7.2801
3267.2	15.524
2126.7	29.53
1127	45.695
1524.5	61.188
2668.2	71.449
3628.7	75
4166.4	68.066
4215.8	55.227
3856.6	39.825
3318.3	37.121
2926.2	52.773
2888.6	72.125
3031.9	86.377
3008.6	91.924
2603.5	89.022
1780.9	76.896
647.79	60.208
811.32	41.725
2105.3	26.306
3215.4	13.416
3997.7	7.2111
4403.5	7.2111
4490	12.649
4364.4	20.396
4168.9	25.495
3968.5	27.514
3768.3	23.195
3490.1	13.601
3089.2	11.662
2556	27.459
1956.5	45.891
1425.1	60.729
1143.5	69.426
1174	69.721
1345.6	62.61
1485.6	48.847
1561	33.121
1597.6	26.926
1614.1	35.355
1638.6	47.508
1670.1	55.731
1704.5	56.824
1763.5	51.078
1830.1	41.11
1879.8	29.732
1882.9	26.249
1801.3	31.953
1629.8	41.146
1346.5	47.854
1039	49.518
821.01	46.174
885.46	39.459
1168.2	28.653
1482.2	17.804
1737.2	14.318
1891.7	22.091
1929.4	32.894
1881.2	41.773
1771.1	48.104
1632.1	51.624
1476	51.856
1355.9	49.649
1249.8	45.607
1155.3	40.608
1048.8	36
906.46	32.65
721.15	29.428
525.56	26.833
477.31	23.707
659.62	20.025
916.33	14.318
1143.4	8.9443
1290.2	10
1341.8	18.111
1305.2	25.942
1221.7	34.67
1119.4	40.05
1050.8	43.046
1030.7	43.463
1086.3	40.522
1210.8	37.216
1364.1	33.242
1519.8	30.871
1633.9	29.967
1675.4	29.411
1625.5	28.653
1493.6	25.71
1293	22.472
1058.9	19.105
817.51	17.692
592.64	16
382.1	14.213
193.78	10.296
74.061	9.434
183.98	12.207
303.12	18.974
379.77	25.318
410.02	28.425
393.81	27.203
353.9	23.409
306.22	17
270.51	10
257.53	10.817
292.41	17.029
391.72	21.932
531.69	23.195
696.59	20.591
833.06	15.232
940.2	7.2801
1003.3	2.2361
1026.5	9.434
1015.1	14.036
1001.6	16.279
976.2	16.279
951.85	13.416
4178.8	33.106
5274.1	20.881
6239.7	14.213
6918.4	18.028
7237.1	23.431
7201.2	27.803
6900.3	30.083
6424.6	30.017
5855.2	28.231
5236.5	23.854
4549.4	20.881
3739.3	24.739
2785.4	36.62
1713.1	51.245
737.2	65.253
1023.7	76.381
2016.3	83.199
2894.7	84.433
3519.6	82.62
3857.5	78.102
3901.5	75.802
3747	76.903
3531.2	82.765
3470.3	93.107
3720.8	103.94
4282.5	113.17
5009.6	117.88
5761.1	116.76
6402.2	111.13
6870.4	98.656
7112.8	84.309
7081.2	67.417
6775.2	51.245
6197.9	36.797
5406.5	25.02
4481.4	14.213
3569.5	5
2888.6	13
2644.2	27.659
2847.4	43.046
3313	57.689
3838	69.08
4349.6	74.953
4820.7	74.33
5229.8	68.359
5567.8	57.983
5764.1	44.922
5774	32.202
5521.4	19.313
4954.6	4.4721
4070	10.77
2887.4	29.411
1539.5	48.26
595.38	65.031
1575.7	76.609
2660.5	79.48
3385.6	73.164
3644.8	56.851
3468.6	33.121
2991	13.038
2485	31.401
2299.1	55.902
2506.6	73.6
2785.4	83.193
2831	83.024
2494.9	75.133
1787.5	63.127
774.48	51.478
410.1	43.738
1609.8	41.049
2709.4	39.56
3607.2	36.77
4251	30.676
4621	22.204
4743.4	12.53
4631.9	6.0828
4331.8	11.662
3898.5	18.439
3375	21.587
2810	21.633
2227	19.849
1622.8	21.932
1002.4	30.61
384.51	42.72
375.15	53.6
908.74	58.796
1354.7	60.033
1612.5	57.315
1683.3	53.085
1629.1	53
1595.9	57.94
1734.2	62.968
2019.6	65.307
2313.4	62.968
2483.7	56.859
2440.4	48.384
2193	42.19
1791.6	37.656
1357.5	34.132
1044.2	28.636
995.06	24.083
1125.8	22
1276.9	25.179
1375.6	29.547
1423.1	29.732
1459.2	24.042
1497.4	12.042
1539.1	10
1581.7	29.275
1625.1	47.434
1647.2	61.741
1644.5	69.354
1607.5	69.203
1512.1	62.032
1361.7	50.99
1160.4	37.537
937.92	24.352
728.18	15
600.48	11.18
623.05	11.705
790.46	14.213
996.73	15.033
1165.7	14.765
1275.5	10.817
1308	4.2426
1260.2	11.18
1159.7	23.345
1053	36.878
973.91	47.127
957.82	53.852
1028	54.562
1177.1	51.245
1375.7	43.566
1574.6	34.205
1733.9	26.627
1794.8	23.022
1743.7	22.672
1575.4	24
1312.8	24.413
990.27	23.259
662.81	20
387.14	17.464
186.01	13.454
88.051	10.63
74.673	9.2195
92.098	10.817
136.18	14.318
191.67	17.464
236.81	19.849
274.17	21.095
331.06	21.633
410.15	20.396
499.72	19.416
558.62	18.028
592.87	17.029
590.06	17.263
566.53	17.493
533.18	16.492
542.52	13.892
591.29	10.44
692.77	6.0828
841.45	6.0828
1004.9	8.6023
1148	11.045
1242.6	11.402
1261.3	10.296
4504.2	12.083
5641.1	3.1623
6563.9	12.649
7089.9	19.105
7197.8	18.682
6979.9	14.318
6593.6	7.0711
6216	10.63
5884.7	22.361
5512.4	33.136
4940.4	42.521
4078.6	50.804
2919.4	56.824
1554.1	62.769
405.21	67.72
1381.3	71.218
2466.9	73.246
3229.9	73.79
3617.4	73.007
3673.2	72.367
3495.4	74.733
3235.9	78.816
3092.9	86.354
3236.7	96
3705.5	105.31
4425.9	113.18
5245.7	117.43
6003.6	119.02
6599.3	115.77
6935	106.3
6968.1	92.022
6702.5	72.111
6205.2	51.245
5579.2	31.016
4926.3	18.248
4310	20.396
3738.1	27.074
3204.3	30.414
2785.4	31.78
2702.9	33.015
3123	38.288
3919.4	45.541
4802.5	53.759
5566.8	60.877
6086.2	66.287
6308.4	69.318
6218.6	69.354
5871.2	62.586
5300.6	49.204
4532.7	29.155
3574.9	8.544
2439.7	31.89
1177.6	62.514
297.99	86.354
1450.2	100.65
2478.3	101.6
3151.7	88.73
3368.8	63.063
3120.1	29.155
2487.2	17.263
1692.7	49.406
1254.5	76.007
1640.6	90.554
2220.9	91.924
2524	80.306
2434.4	59.908
1965.6	40.804
1309.2	39.115
987.68	51.478
1522.4	62.177
2299.2	64.405
2972.6	55.326
3491.8	38.471
3907.6	18.028
4267.4	8.9443
4564.1	24.021
4728.5	34.713
4679.9	36.139
4341.8	30.083
3681.3	16.643
2761	1.4142
1687.8	20.591
609.27	38.484
460.93	53.151
1179.5	63.127
1616	68.029
1728.3	69.814
1579.3	69.231
1280.8	66.37
1081.8	61.685
1200.5	57.245
1535.2	52.811
1867	49.659
2080.5	46.615
2138.8	44.922
2065.2	42.202
1882.5	39.115
1662.2	35.468
1436.8	31.145
1237.3	29.155
1101.2	29.12
1050.8	29.017
1083.6	27.313
1177.6	23.431
1304	16.279
1418.3	7.2111
1504.7	8
1557.9	20.518
1608	32.757
1668.9	42.72
1735.2	48.795
1770	52.202
1748	52.154
1643.1	49.193
1435.5	46.011
1143.2	41.629
809.28	38.21
505.19	33.956
395.35	29.682
542.64	24.207
743.82	16.763
905.68	9.2195
1036.8	6.4031
1132.7	12.649
1200.7	19.416
1239.4	24.413
1239	28.862
1210.1	31.257
1168	33.541
1136.6	36.125
1156.2	38.897
1222.1	39.623
1338.6	39.699
1465.4	39.294
1569.3	37.577
1612.6	35.468
1584.9	34.54
1474.1	34.015
1294.6	32.28
1056.1	29.411
796.33	23.022
571.3	15
420.35	5.3852
372.91	5.3852
363.28	14.213
338.92	20.224
291.34	22.847
228.4	23.601
216.09	22.091
243.03	18.385
276.39	15.62
297.26	13.153
319.48	12.083
352.44	11.662
391.88	13.153
428.07	14.213
473.03	15.033
533.57	15
643.52	14.142
802.81	11.402
975.39	10.05
1124.1	9.4868
1226.7	11.402
1273.5	12.166
1241.6	11.662
1151.5	9.8489
5490.5	8.0623
6348.9	12.207
6862.3	23.77
6973.2	28.601
6752.9	25
6318.4	15.556
5813.2	6.7082
5367.5	19.698
4983.6	35.735
4586.3	48.6
4069.5	57.079
3350.1	59.54
2428.1	57.801
1381.9	54.009
379.29	50.16
807.43	50.21
1656	54.626
2319.4	64
2790	75.153
3087.1	86.215
3283.5	93.941
3454.5	96.773
3694.1	95.21
4046.2	93.231
4504.8	93.301
5015	99.126
5508.5	109.48
5929.4	118.44
6240.8	122
6418.2	118.23
6454.3	104.24
6304.8	83.433
5953.9	58.181
5366.7	31.321
4580.4	14.318
3712.3	26.173
2932.6	39.623
2471.7	45.277
2383.2	41.183
2529.2	27.785
2786	9.8995
3231.7	27.659
3905.9	57.489
4729.2	84.853
5486.6	103.94
5980.2	110.69
6073.8	102.4
5739	81.498
5052.4	50.606
4150.5	27.586
3196.9	45.343
2308.4	74.431
1470.8	94.112
606.38	100.66
354.56	92.655
1324	73.661
2203.3	48.27
2802.3	22.561
2986.8	1.4142
2699.8	17.029
1965.7	29.967
974.07	41
674.69	54.009
1606.2	65.788
2389.7	72.918
2783.3	71.176
2756.7	59
2429	39.217
2013	18.111
1803.8	27.803
1884.1	47.927
2090.7	62.201
2330.3	63.411
2685.8	54.571
3226.3	39.205
3886.1	30.083
4461.2	39.205
4759.7	51.313
4669.6	57.07
4157.7	50.22
3298.1	36.056
2235.1	28.16
1196.3	46.043
727.68	70.434
1149.8	90.006
1564.1	99.02
1740.9	96.84
1707.4	85.094
1594	67.676
1552.2	49.092
1669.4	33.971
1926.3	24.331
2218.2	22.136
2469	27.659
2621	38.013
2652.8	50.01
2546.5	57.801
2301.5	60.033
1961	54
1540.7	40.706
1103.7	23.345
714.19	10.44
540.95	19.235
699.37	27.459
978.23	29
1241.7	21.024
1456.7	13.153
1643.3	24.331
1828.8	43.6
2007.8	58.822
2167	65.97
2248.5	64.382
2212.2	55.154
2050.7	40.2
1782.9	30.15
1468.8	32.016
1194.1	41.11
1019.4	45.222
935.76	43.139
930.26	32.757
1014.8	18.788
1192.1	5.831
1448.2	15.556
1671.8	25.179
1804.3	28.636
1791.5	26.173
1675.5	19.723
1508.7	18.439
1407.3	25.495
1430.1	35.847
1520.9	44.102
1592.1	48.826
1575	48.466
1465.4	46.098
1280.2	41.037
1080	35.355
908.27	29.967
796.92	25.807
749.5	22.361
757.62	20.616
778.01	17.804
768.68	15.232
709.58	11.045
584.14	3.6056
450.13	5
417.54	14.036
510.36	20.591
625.4	25.942
676.43	28.16
651.19	27.019
605.66	23.087
644.9	17.464
785.83	10.817
955.7	7.0711
1059.4	7.0711
1078.9	9.4868
1024.3	11.705
955.87	14.318
966.09	16.155
1046.7	17.088
1150.6	17.889
1194.6	17.464
1163.5	16.401
1038.9	16
863.73	15
653.17	13.342
4625.8	19.026
5038.2	21.024
5447.1	20.125
5728.2	16.279
5767.5	13.038
5527.8	13.454
5046.2	19.235
4490.1	23.431
4104.4	25.495
4052.8	27.295
4214.4	30.871
4297.9	38.949
4061.1	49.193
3411	60.008
2377.2	67.543
1090.4	72.007
331.21	71.063
1530.8	67.268
2516.9	64.195
3243.2	68.425
3808.6	79.812
4380.5	94.048
5059.2	105.77
5806.3	110.45
6456.2	108.34
6840.5	101.53
6867.2	96.675
6527.8	100.72
5947.1	110.6
5299.3	117.52
4775.1	116.97
4399.6	102.22
4078.1	77.104
3636.2	45.343
2959.4	26.907
2067.7	44.822
1059.4	64.382
83.863	70.831
692.99	61.741
1172.1	36.674
1358.3	3.6056
1449.6	40.719
1811.6	77.279
2545	104.66
3421.3	116.3
4170	113.32
4611.1	95.771
4650.4	71.568
4300.2	50.289
3660	47.802
2936.6	59.135
2382.9	68.964
2149.4	72.173
2103.1	67.119
1979.5	58.31
1683	47.518
1366.6	39.051
1363.6	32.558
1733.3	28.284
2102.6	28.32
2216.4	35.014
1968.6	43.417
1394.5	50.289
818.28	53.151
1161.5	49.041
2013.6	40.706
2742.1	29.428
3152.8	20.1
3216.1	15.232
3022.8	17.804
2801.1	24.207
2806.8	31.305
3088	39.459
3455.6	45.607
3689	47.381
3684.3	45.891
3427.7	39.446
3019.2	33.136
2573.5	31.906
2194.9	36.359
1901.9	46.043
1650.3	53.907
1393.4	62.968
1152.4	71.197
1022.9	82.219
1009.3	91.679
1013.8	98.762
900.91	98.473
622.69	91.088
310.14	75.802
557.31	53.712
1048.3	31.401
1455.5	23.854
1680	38.275
1687.5	54.589
1509.1	63.506
1285.7	64.846
1266.3	58.694
1542	48.877
1924.6	37.696
2210.1	29.155
2291	25.495
2138.9	25.495
1785.4	27.514
1343	31.257
1034.6	39.205
1093.6	49.244
1370	56.604
1611.1	60.828
1675	59.464
1552.4	51.352
1280.8	37.577
944.85	21.932
658.24	10.44
555.27	21.095
582.95	33.242
578.02	40.311
486.6	40.262
350.46	34.482
322.56	25.495
473.36	14.142
650.88	4.4721
768.14	2.8284
816.32	5.099
808.89	2.2361
781.92	4.4721
784.63	12.649
823.8	20.224
895.93	26.627
990.71	30.232
1093.4	31.623
1198.7	34.234
1295.4	39.115
1390.9	44.944
1467.2	50.99
1537.8	52.802
1577.7	50.04
1555.5	43.417
1462.1	32.757
1274.6	20
1015	7.2111
742.18	3.6056
550.11	9.4868
529.53	12.166
589.57	11.18
601.69	10.817
534.33	11.402
423.76	14.866
406.43	18.682
529.79	20.881
663.43	21.401
725.85	21.024
699.63	18.439
622.51	15.297
602.09	10.77
693.55	5.831
837.46	6
914	11.045
900.59	16.401
806.86	18.682
728.49	20.125
774.86	18.682
934.29	18.601
1069.2	19.026
1106.6	20.809
997.92	21.378
6161.7	27.166
6070.1	35
5910	39.459
5535.5	38.601
4885.6	30.594
3986.6	23.77
2967	26.42
2083.7	36.77
1686.4	43.046
1844.1	41.049
2120.1	32.558
2243.9	28.16
2196.6	45.607
2108.7	71.007
2138.2	92.114
2307.2	103.24
2508.2	100.46
2640.9	84.095
2686.1	61.131
2771.9	53.759
3042.9	74.041
3519.4	102.18
4075.3	120.81
4536.8	123.43
4774.4	109.59
4755.1	83.546
4500.6	60.208
4135.3	62.65
3803.7	87.596
3618.4	110.11
3570.6	120.74
3548.3	116.3
3449.7	100.66
3219.7	78.892
2879.2	63.506
2495.7	60.033
2145.1	62.801
1878.9	62.37
1680	53.712
1515.8	41.677
1372.2	40.262
1264.1	54.571
1238.2	72.945
1346.6	85.703
1619.4	91.214
2031.2	87.727
2487.8	78.102
2892.2	65.253
3137.9	53.74
3135.3	42.953
2853.5	37.59
2340.4	39.294
1818.4	47.011
1716.7	57.009
2176.6	65.513
2787.2	69.296
3201.4	67.912
3252.1	59.908
2901.5	48.27
2199.7	37.216
1334.1	29.155
950.71	28.862
1601.3	32.14
2401.6	35.228
2946.8	35.735
3147.7	34.928
2995.7	32.311
2584.4	28.636
2070.2	24.515
1727.7	21.401
1761.9	23.259
2056	28.636
2350.1	35.355
2508.2	38.91
2496.5	40.05
2370.7	39.825
2211.8	38.601
2123.9	36.878
2141	32.28
2247	26.077
2336.3	21.095
2347.6	29.833
2249.4	49.659
2020.6	72.533
1688.2	93.236
1262	107.23
796.58	113.37
354.45	109.12
377.89	94.895
783.67	72.25
1168.3	44.643
1452.7	16.279
1609.1	12.042
1614.9	34.205
1483.1	50.448
1250.5	60.075
1040.6	64.405
1008.7	62.817
1185.9	57.245
1437.5	47.17
1620.3	34.928
1659.4	22.361
1534.3	15.524
1260.3	23.259
891.76	35.847
546.77	46.065
495.77	53.6
747.74	56.727
1004	54.708
1163.8	49.031
1207.8	40.46
1133.5	29.155
991.07	17
827.79	6
707.54	9.2195
682.82	17.889
743.36	25.239
834.87	30.017
914.56	30.529
962.85	29.547
957.31	25.71
902.74	20.616
792.09	15
634.39	7.2111
447.4	2.2361
300.65	9.2195
311.35	17.72
442.82	25.71
562.08	30.414
622.55	31.623
616.79	30.15
568.37	26.571
533.1	25.495
570.02	28.653
675.68	36.125
798.28	43.829
883.93	48.042
912.86	46.519
870.57	41.049
774.35	31.016
642.01	18.868
505.67	8
385.92	6.7082
305.94	12.166
284.38	13.416
295.03	10.63
312.3	5.6569
320.2	8.0623
311.45	17.029
280.07	25.06
236.97	30.232
174.26	31.145
119.02	27.313
139.79	21.401
213.04	12.166
286.54	3
323.15	7.0711
327.93	13.928
262.76	18.028
161.15	20.1
100.57	20.616
230.02	21.378
389.96	23.324
525.36	25
600.37	25.554
600.79	24.515
5127.6	22.825
5173.4	20.224
5116.2	17.117
4867.1	11.662
4421.9	3
3813.4	13.038
3129.3	31.016
2495	48.301
2088.5	60.803
2055.7	63.151
2342.4	54.918
2738.6	37.336
3091	29.155
3328.6	50.922
3398.4	79.228
3306.5	98.351
3064.6	103.24
2731.1	88.865
2378.4	58.215
2158.3	18
2205.1	39.205
2519.8	83.672
2954.1	115.42
3337.7	127.74
3559	117.65
3560	87.046
3360.6	40.853
3039.1	20.591
2754.4	71.309
2664.4	114.74
2809	141.03
3045.6	148.63
3223.8	137.93
3247.1	114.28
3114.5	84.172
2896.4	59.034
2702.5	48.166
2607	50.448
2600	55.036
2606.9	54.781
2549.6	50.99
2433.2	46.573
2337.5	43.417
2380.6	43.566
2593.8	46.573
2891.1	55.606
3132.8	66.189
3211.8	76.007
3064	82.68
2682.5	83.193
2109.2	76.942
1454.4	67.882
942.98	56.569
1033	47.011
1538.6	38.471
2028.6	33.061
2348.2	31.78
2457.6	36.674
2363.6	45.277
2118	51.478
1839.4	54
1705.1	50.695
1813.5	41.869
2085.1	34.059
2344.8	29.833
2455.2	32.45
2359.2	34.482
2064.2	30.594
1660.3	20.616
1340.4	12.728
1371.9	24.207
1713	41.304
2097.1	55.009
2353.7	61.4
2445.2	60.008
2405	51.108
2324.7	37.216
2329.1	22.091
2437.6	10.77
2596.6	4.1231
2704.6	9.2195
2699.5	22.361
2561.6	41.485
2306.7	65.054
1967.4	88.057
1568.5	106.04
1130.9	115.36
715.34	114.93
572.79	104
926.34	82.377
1401.2	54.037
1779.4	22.672
1984.5	13.928
1958.7	39.623
1733.1	61.294
1393.7	73.79
1148.3	77.782
1222.7	72.918
1514.8	60.638
1789.3	43.863
1902.9	26
1817.9	12.806
1567	17.205
1221.9	27.459
900	35.384
741.9	39.56
800.26	42.012
948.24	43.081
1091.3	44.598
1191.9	45.188
1246.2	43.012
1222.4	38.079
1115.9	28.178
932.56	17.464
721.41	7.2801
588.08	16.155
649.65	28.231
815.03	38.079
944.2	43.932
972.6	44.283
890.35	38.949
717.41	29.069
494.58	15.524
270.67	3.6056
139.62	15
179.11	27.074
247.41	35
287.69	37.696
322.06	33.242
353.69	24.698
383.4	15
395.37	14
380.18	25
370.73	36.401
409.1	43.186
501.29	45.354
614.39	41.976
709.48	35.609
756.51	25.554
736.12	17.72
650	13.342
517.17	13.038
381.81	11.705
309.38	10.296
331.45	9.434
374.93	10
392.62	11.314
372.15	10.198
347.21	6.3246
348.62	3.6056
371.57	12.53
369.12	21.633
319.08	29.017
224.21	31.906
197.34	30.463
312.02	22.804
444.87	12.083
517.23	8.0623
485.15	19.235
342.2	30.232
124.62	37.643
208.72	40.311
486.5	39.395
705.54	35.114
815.59	30.676
800.51	27.459
4044.2	24.739
4412.2	18.111
4676.6	9.0554
4692.8	8.2462
4420.3	24.515
3935.7	41.304
3369.4	55.073
2896.8	62.008
2629.6	60.877
2590.9	50.359
2720.9	32.311
3013.6	15.033
3454.1	28.32
3963.5	52.202
4398.4	71.063
4622.8	79.429
4540.4	77.006
4159.9	61.327
3616.2	35.511
3197.6	10.44
3208.8	36.359
3619.7	67.624
4102	89.677
4380.7	99.624
4323.5	94.372
3949	73.11
3404.6	39.661
2911.5	6.0828
2706.1	47.297
2793.5	87.932
2973.4	119.52
3040.4	138.05
2950.3	141.66
2751	130.97
2548.5	107.86
2421	77.201
2375	44.777
2329.5	28.425
2222.2	42.72
2063.8	59.481
1925.4	71.063
1896.3	73.11
1996.1	68.425
2176.9	61.522
2368.8	54.452
2525.5	51.624
2626.7	53.263
2644.2	56.365
2537.6	60.299
2275.2	65.299
1836.3	70.342
1253	74.947
640.08	74.518
571.43	69.426
1122.5	59.228
1638.3	46.065
1980.1	37.121
2131.8	39.925
2152.2	50.249
2143.2	56.727
2196.3	57.871
2335.4	50.359
2478.6	36.715
2532.4	19.849
2438.8	11.045
2195.2	19.105
1827.8	26.249
1414.5	26.627
1061.6	25.298
899	28.16
974.04	38.949
1173.1	52.01
1375.8	59.816
1528.9	61.033
1605.6	54.818
1594.5	42.45
1510.2	27.659
1402	14.318
1347.8	6.0828
1397.8	7.2801
1528.2	15.264
1654.7	29.833
1709.5	50.329
1647.8	71.847
1475.2	90.25
1220.5	103.59
937.87	109.66
666.92	105.99
456.84	93.862
374.13	76.026
442.76	53.085
584.23	26.571
721.19	1
804.11	26.571
786.54	51.157
648.75	68.964
400.26	80.709
65	82.389
307.7	73.41
656.19	57.14
923.94	36.497
1063.8	21.378
1060.9	27.203
924.88	41.183
689.88	47.011
406.26	46.098
135.59	38.833
80.523	32.985
209.61	36.674
267.42	46.615
303.8	53.038
388.24	51.923
498.3	42.379
576.44	28.231
580.94	19.723
478.11	31.828
280.64	47
16.031	56.4
274.54	56.921
536.06	47.539
718.05	33.302
795.97	14.036
765.08	5.3852
636.42	18.028
458.28	26.401
290.99	27
237.92	22.136
276.05	17.088
289.11	17.263
246.48	22.804
154.49	25.554
58.6	24.083
66.573	18.358
101.53	14.866
72.801	21.633
67.912	31.89
210.16	41.485
379.47	45.354
531.75	43.863
624.58	36.346
637.78	25.554
560.26	12.369
413.21	3.1623
246.04	11.662
189.62	19.416
285.95	23.022
368.54	24.515
375.77	23.022
311.24	18.111
214.14	12.207
190.38	8.9443
287.59	14.765
370.67	24.166
389.71	32.894
321.19	36.674
180.37	37
36.249	32.757
213.78	28.018
371.73	28.46
464.94	36.77
467.82	47.17
393.93	54.672
302.42	57.079
313.7	54.452
455.39	48
603.75	38.949
4162.3	6.3246
3071.6	1.4142
1345.6	2.2361
679.98	9.434
2372.8	20.224
3491.8	33.838
3813.8	45.343
3438.8	51.971
2782.4	50.695
2576.8	42.19
3003.2	29.411
3356.8	22.204
3115.5	35.355
2172.4	52.202
877.8	64.288
1468.8	68.007
2928	62.968
3863.3	52.469
3979.5	40.497
3279.3	36.674
2160	41.773
1915.4	48.765
3066.3	53
4170.7	52.345
4574.9	49.729
4115.1	43.417
2932.7	34.176
1532.7	23.324
1514.1	26.833
2615.2	51.624
3275.6	83.648
3163.5	113.37
2353.8	135.03
1281.7	143.42
1356.4	137.32
2368.6	118.23
3026.5	89.107
3028.1	59.076
2409.8	41.785
1512	45.277
1218.5	51.088
1819.7	47.424
2265.3	36.401
2169.2	33.838
1616.2	53.6
1254.7	79.259
1906.3	98.234
2791.3	106.23
3284.1	101.43
3154.7	86.954
2410.9	68.593
1241.7	54.818
215.93	53.009
1174.7	56.859
1739.5	58.078
1633.7	52.326
887.7	39.962
689.37	24.187
2126.8	7.6158
3530.9	11.402
4509.9	25
4847.5	37.121
4479.2	45.607
3522.3	49.93
2231.8	48.508
1058.6	38.288
975.67	21.213
1483.7	10.63
1586.1	32.65
1214.3	56.321
584.97	74.33
703.73	82.28
1404	81.86
1871.1	74.947
1945.6	66.573
1632	61.131
1056.2	58.052
593.25	50.249
883.12	34.205
1337.9	12.728
1585.2	30.067
1571.8	65.115
1382.5	96.881
1155.1	118.85
1035.7	126.02
1016.5	117.61
993.97	97.862
888.66	70.007
724.7	44.654
551.24	32.016
424.1	32.802
363.61	31.78
382.51	23.601
498.46	23.022
642.15	42.579
734.76	66.4
714.12	85.024
581.12	93.862
448.43	91.984
539.19	81.123
792.78	67.683
1000.5	56.727
1060.1	51.157
949.54	46.615
701.74	37.483
453.93	22.023
441.78	3.1623
601.12	23.087
681.69	43.267
613.47	57.035
416.2	62.008
222.73	59.203
312.42	49.659
486.05	38.275
550.96	29.411
475.18	28.018
303.76	29
191.7	28.443
322.58	25.71
449.04	22.825
475.44	21.26
433.54	19.723
429.79	17.117
551.59	10.817
699.74	7.6158
757.5	13.153
664.16	19.849
420.46	23.195
93.107	22.472
305.05	16.279
613.13	7.8102
782.91	6.3246
765.92	13.416
565.69	19.647
221.72	22.023
206.19	24.083
607.19	28.284
904.25	34.482
1045.1	40.497
1004.9	42.202
800.62	39.051
491.01	30.414
154	16.553
223.14	6.7082
449.91	17.804
556.51	28.844
529.4	34.234
399.17	31.385
199.1	22.204
137.32	9
327.44	7
486.2	20.518
559.6	31.145
532.08	35.847
407.49	35.114
210.24	30.887
48.26	28.018
256.39	30.017
430.59	38.484
530.13	46.487
533.97	52.393
467.39	54.129
351.76	53.451
235.32	50.606
152.2	47.297
118.34	43.566
3527.4	40.025
2984.9	26.476
2164.7	10.44
1565	12.042
1885.2	24.698
2711.6	33.136
3434	37.643
3850.4	41
3890.8	47.927
3597.5	57.245
3052	64.56
2372	68.964
1758.5	67.186
1476.1	62.682
1659.8	59.135
2059.9	58.138
2424.5	59.414
2644.7	58.728
2718.2	52.612
2687.3	42.72
2647.4	33.541
2713.3	34
2898.6	41.11
3129.7	47.17
3270	46.84
3225.9	43.863
2960	46.615
2530.1	60.008
2107	78.492
1944.2	94.763
2120.9	105.55
2406.2	107.9
2556.9	103.82
2463.4	96.135
2189.3	88.414
1941.2	80.994
1989.8	75.133
2321.1	70.711
2643.2	68.469
2724.1	66.287
2462.6	64.56
1909.1	57.245
1349	41.869
1406.5	19.235
2059.1	20.396
2694	51.01
3030.6	80.529
2976.1	100.21
2557.8	106.92
1909.7	97.739
1287.8	74.967
1032	45.486
1148.9	29.155
1186	47.539
911.78	68.264
330.55	77.698
597.77	72.111
1553.5	52.355
2464.6	23.77
3174	11.402
3559.6	39.56
3576.2	61.221
3231.7	70.178
2586.7	67.231
1771.9	53.852
920.15	33.541
230.1	19.313
472.72	31.623
773.84	49.396
834.38	62.968
724.58	70.711
637.01	73.756
744.53	75.213
945.94	76.42
1046.1	75.69
968.6	71.253
705.91	61.587
368.02	44.598
369.93	21.471
687.37	14.142
894.04	44.045
884.14	73.171
675.16	98.005
464.64	111.65
713.78	115.02
1178.6	105.12
1536.3	85.446
1649.1	60.415
1471.1	36.056
1030.3	27.203
446.84	35.735
438.04	43.29
989.75	44.553
1378.2	44.102
1492.8	48.877
1357.9	61.098
1112.9	74.25
1054.8	84.929
1296.4	89.196
1579.9	84.853
1679.1	73.41
1494.1	57.689
1045.8	41.012
455	24.698
436.29	11.18
998.01	1.4142
1402	6.7082
1544.3	12.083
1434.2	18.682
1163.9	25.239
926.21	34.059
924.33	43.417
1053.3	50.961
1113.4	56.921
1023	57.201
875.95	53
888.41	44.045
1148.2	33.377
1444.8	22.627
1610	16.763
1573.7	14.318
1342.9	10.63
1009.8	4.1231
751.23	8.0623
761.23	19.416
922.16	29.069
1020.5	34.713
994.27	33.541
889.14	26.926
816.44	18
866.6	16.031
983.42	24.597
1061.6	31.623
1053.9	34.409
972.77	29.017
899.28	18.028
926.1	7.2801
1069.8	18.385
1260.5	32.311
1422	40.608
1529.9	41.725
1564.8	35.228
1535.4	24.083
1462.4	17
1377	22.136
1316.4	31.623
1301.1	36.249
1324.8	35.341
1351.3	28.792
1352.2	20.616
1317.9	17.889
1257.8	23.431
1194.5	31.064
1149.8	35.805
1110	36.401
1048.3	33.615
950.62	29.967
819.22	27.514
681.47	28.636
571.49	32.573
523.79	39.661
543.03	46.011
616.08	51.865
726.48	55.154
850.82	54.129
948.42	50.249
3617.7	32.016
3404	26.173
2806.7	21.213
2159.4	20.025
2123.9	25.08
2879	33.242
3809.7	41.183
4470.3	45.277
4686.5	46.174
4413	45.277
3736	45.177
2867.2	48.826
2158.6	56.089
2025.4	64.203
2371.1	69.007
2742.4	69.405
2913.7	65.788
2854.8	57.489
2678.8	45.967
2505.4	34.785
2434.7	24.083
2445.5	18.682
2475.5	20.125
2464	25.495
2390	33.734
2264.7	43.081
2098.7	54.378
1929.5	65.031
1823	76.609
1838.5	86.729
1980.5	93.941
2165.9	99.035
2312.8	100.96
2394.4	99.69
2454.4	94.26
2566.5	86.816
2762.3	79.101
2981.7	72.277
3112.7	69.971
3078.9	69.426
2879.8	67.779
2602.8	61.008
2436.1	47.011
2523.3	26.249
2804.3	11.402
3079.3	36.401
3192.3	64.288
3078.9	86.585
2756.1	98.995
2286.3	97.293
1765.1	83.006
1264.5	55.946
843.01	25.06
557.77	25.08
610.13	53.6
962.44	76.688
1389.8	86.77
1791	83.934
2105.4	69.778
2324.6	54.231
2449.9	53.712
2505.1	69.203
2490.4	85.212
2384.3	93.236
2150	87.298
1761.6	71.847
1236.6	52.01
633.68	43.324
297.41	55.227
732.6	72.25
1144	81.468
1353.4	82.219
1335.7	74.33
1115.6	64.078
797.8	57.689
615.45	57.28
786.01	55.902
1067.3	46.011
1242.6	26.926
1243.1	6.3246
1051.2	38.275
705.6	72.533
264.88	102.73
242.87	122.19
671.28	127.48
1008.9	120.07
1213	98.412
1264.5	67.941
1172	33.015
961.3	10.817
692.96	34.205
504.29	57.315
629.52	72.201
953.28	82.201
1292.5	88.482
1568.7	91.984
1745.2	92.785
1807	90.139
1756.3	82.861
1618.3	69.656
1420.8	52.773
1210.7	36.346
1037.4	25.318
942.55	26.173
949.65	31.623
1054.9	31.828
1206.2	25.298
1366.4	12.369
1476.6	5.6569
1504.1	24.331
1430.3	42.485
1256.2	57.706
1037.9	66.91
880.69	71.589
908.42	71.007
1095.4	67.268
1303.2	60.133
1451.8	50.99
1490.8	41
1428.8	30.806
1294.6	21.095
1135.4	21.024
989.48	28.071
898.71	37.216
844.73	43.966
813	46.957
795.4	45.88
802.68	42.059
837.5	38.601
891.93	37.054
932.52	38.275
936.88	37.643
907.81	34.015
861.64	25.942
836.19	17
867.56	16.031
952.61	25
1068.7	35.511
1188.5	41.485
1294.7	43.382
1376.9	38.079
1427.5	30.676
1442.6	21.541
1418	13.454
1354	12.083
1264.5	13.153
1188.2	12.207
1158.4	8.9443
1181.7	5.831
1230.4	8.4853
1264.2	12.649
1245.7	15.232
1170.9	17.464
1058.3	21.213
946.74	28.636
865.85	38.471
822.23	48.765
785.06	56.604
708.46	60.671
581.72	61.62
422.43	59.034
348.36	53.6
468.74	46.573
677.04	39.217
863.03	32.558
976.38	27.313
1669.1	35.777
2155.6	23.345
2542.9	9.434
2814.6	15
3065.1	30.414
3460.2	42.19
4063.5	49.336
4762.8	50.249
5328.3	46.615
5579.4	42.048
5406.8	37.216
4848	35.777
4070	37.656
3387.6	44.688
3115.4	56.143
3253.4	67.602
3466.5	75.664
3454	78.058
3125.9	71.561
2537.8	57.245
1837.9	37
1275.5	15.133
1138.1	15.264
1404	33.242
1784.8	48.052
2198.3	59.034
2619	66.851
3001.9	75.273
3274.9	84.06
3374.7	91.049
3310.3	92.785
3150.5	91.608
3018.6	88.865
3020.2	89.56
3138.2	95.525
3258.4	102.32
3276.4	105.76
3132.4	99.985
2832	86.885
2443.3	67.067
2061.2	48.508
1794.7	38.118
1715.3	36.014
1800.1	34
1978.7	28.071
2170.7	29.547
2335.6	47.011
2439.2	68.154
2459.5	85.159
2370.3	90.427
2159.9	83.169
1834.5	65.924
1389.4	44.721
902	42.72
684.63	61.555
1106.5	81.006
1748.3	91.967
2339.2	92.087
2759.8	85.563
2948.3	80.062
2869.8	81.86
2551.5	89.9
2073.5	95.818
1580.6	93.941
1268	83.934
1224	69.778
1264.8	58.052
1172.1	56.586
873.18	61.294
395.77	65.795
256.46	64.195
811.16	58.078
1257.8	52.887
1495.9	52
1485.2	56.303
1309.2	59.034
1140	56.045
1216.7	44.385
1494.9	28.302
1728.1	21.633
1754.6	41.049
1516.1	67.357
1073	90.028
685.97	106.4
920.36	113.85
1455	111.36
1869.4	97.944
2021.2	75.293
1871.7	46.043
1466.8	12.53
951.47	20.248
703.92	51.088
1044.2	75.18
1493.6	91.302
1800.9	99.408
1906.3	100.77
1820	95.802
1598	87.846
1308.5	76.322
1026	62.073
806.55	46.043
687.06	28.844
644.35	16.401
641.57	18.788
650.25	28.601
680.78	34
770.24	32.016
944.99	22.804
1169.3	9.2195
1368.6	17.804
1479.4	38.118
1456.1	57.801
1307.1	72.801
1086.4	80.062
963.92	80.92
1094	73.055
1398.4	60.638
1683.6	43.932
1838.1	28.018
1825.4	17.088
1651.3	18.358
1377	24.597
1101.8	29.732
955.91	31.78
969.46	31.953
1051.1	32.249
1092.2	35.693
1049	40.224
950.7	44.147
855.89	46.065
833.87	43.463
886.35	37.947
954.38	29.967
972.38	22.472
933.9	21.587
854.94	26.476
802.05	33.422
844.42	39.115
996.22	41.11
1186.7	42.107
1352.6	40.361
1445.8	39.013
1445.7	35.355
1358.1	30.017
1218.4	24.207
1093.7	17.72
1055.3	13.153
1125.9	11.705
1246	12.042
1339.9	12.083
1365.5	12.042
1303.8	15.033
1181.2	23.854
1046.1	33.526
956.94	43.382
926.12	51.865
923.3	59.059
885.14	63.063
785.12	65.46
617.01	65.376
428.53	61.522
344.4	55.109
482.1	44.272
693.96	32.016
877.71	25.495
987.36	28.425
2396.3	27.459
2574.8	21.19
2851.1	14.142
3209.2	6.0828
3571	6.7082
3863.9	18.385
4043.9	31.145
4127.2	43.417
4147.8	53.009
4123.5	58.83
4073.1	61.188
3984	59.841
3883.3	57.801
3815.9	54.672
3841.7	53.451
3948	52.469
4067	51.4
4080.5	51.865
3865.5	52.202
3369.5	50.606
2573.1	46.043
1546.6	35.847
377.15	18.868
869.59	5.831
2009.2	32.558
2974.7	62.626
3684.4	89.107
4119.4	109.2
4283.1	118.07
4242.1	116.02
4077.7	103.82
3870.4	85.604
3668.3	70.007
3450.6	67.882
3172.9	77.466
2809.4	87.321
2388.8	90.089
2017.9	83.934
1813.2	67.897
1792.6	44.944
1872.2	22.204
1980.8	10.63
2137.5	19.313
2393.8	22.627
2720.5	17.117
3016.3	8
3149	24.187
3041.3	47.424
2686.5	68.469
2156.7	84.534
1585.9	90.355
1095.3	86.977
755.14	76.577
423.54	62.514
68.6	54.626
725.73	60.803
1509.5	75.166
2276.7	88.238
2861.1	96.773
3145	98.234
3068.7	92.114
2634.3	81.394
1938.2	69.354
1147.1	60.133
611.82	58.6
809.38	62.801
1129.3	70.178
1210.2	76.42
1029.4	78.294
667.42	74.404
354.56	65.924
584.06	52.393
973.63	38.949
1260.7	28.018
1418.5	26.926
1462.9	30.48
1428.4	33.615
1365.5	35.171
1301.9	36.715
1274.5	44.385
1258.3	57.385
1245.8	73.498
1238.3	87.864
1263.3	97.862
1376.4	100.58
1576.9	95.462
1808.6	84.155
1978.2	66.189
2021.3	45.177
1899.2	20.616
1673.9	4.1231
1459.4	31.145
1404.1	56.436
1493.5	78.6
1599.1	97.293
1577.7	108.68
1399.4	112.45
1140.8	106.45
995.66	92.005
1072.8	70.661
1234.4	45.607
1285.3	20.248
1175.8	7.0711
988.87	22.136
963.92	30.265
1242.7	31.241
1613.8	24.515
1881.5	15.62
1947.4	19.105
1796.6	33.734
1481.1	49.041
1098.1	60.531
775.93	68.154
620.21	70.434
623.4	68.066
705.92	61.984
861.82	53.759
1090.4	43.174
1346.8	33.838
1556.5	23.324
1662.7	17.088
1670.2	16
1607.1	21.095
1533.7	27.659
1501.4	35
1513.9	40.012
1523.6	44.204
1492.2	46.573
1403.8	46.615
1272.8	43.909
1117.3	40.608
960.03	34.828
814.79	29.155
682.39	25.554
578.55	24.166
539.83	26.683
588.36	30.806
718.27	34.928
902.17	38.013
1114.5	39.812
1317.6	39.051
1483	37.014
1571.9	34
1575.1	29.069
1488.6	24.187
1339.7	17.804
1169.1	13
1015.5	9.8489
920.56	9.2195
904.88	10.296
977.74	13
1098.3	15.652
1247.3	21.095
1366.8	29.155
1413.9	39.825
1364.7	50.804
1221.2	60.828
1022.6	69.771
836.15	73.553
734.7	72.471
728.16	65.788
747.59	54.745
700.06	40.224
564.14	24.839
383.08	16.643
310.72	23.77
3402.7	24.698
3674.5	20.248
4036.6	15.033
4479.6	10
4826.9	7.2111
4877.2	8.9443
4531.7	15.033
3822.9	23.77
2989.8	34.409
2505.7	44.181
2727.4	51.478
3350.9	56.223
3966.8	56.754
4459.9	54.148
4929.5	52.202
5449	54.562
5955.4	61.4
6245.8	70.214
6099.8	75.432
5400.4	72.993
4179	61.294
2737	39.962
2037.4	10.77
2987.8	24.207
4376.3	57.801
5448.2	86.209
6032.5	105.48
6128.6	113.9
5878.9	110.05
5417.2	97.082
4836.2	76.217
4100.8	56.798
3162.4	48.104
2000	54.708
747.5	63.953
929.45	70.725
2127.2	70.214
3111.2	64.195
3772.5	53.16
4142.7	39.408
4318.5	25.612
4375.2	15.811
4316.4	12.728
4029.2	15.62
3403.4	18.439
2416.1	22.361
1138.4	29.155
452.02	38.601
1684.1	50.804
2690.4	61.008
3234.2	69.893
3304.5	74.673
3038.7	76.243
2787.9	75.717
2881.6	74.813
3247.8	74.813
3506.1	77.318
3371.7	80.66
2753	84.149
1706.8	86.533
536.93	85.44
1056.9	82.462
2079.9	78.645
2691	74.673
2768.5	70.682
2337.6	68.797
1562.9	67.007
832.06	65.368
1015.8	62.434
1571.6	58.078
1822.9	51.478
1679.1	42.638
1293.9	32.28
1222.6	22.023
1814.6	16.125
2570.6	19.647
3117.6	30.017
3313.3	40.719
3136.8	51.614
2704.7	63.198
2220.4	72.45
1941.9	80.709
1959.4	86.284
2072.9	86.925
2080.5	84.386
1883.1	76.655
1535	65.924
1112.1	52.431
741.03	38.013
494.01	23.77
421.87	18.111
537.6	28.601
824.77	46
1191.8	63.506
1531.7	78.873
1767.3	91.482
1837.3	97.867
1737.5	97.417
1480	89.627
1154.5	75.71
826.63	55.902
584.27	33.121
460.02	13.416
456.03	12.728
568.68	26.249
797.28	34.785
1080.3	36.497
1345.4	32.558
1533.4	27.074
1604.5	26.401
1566.3	33.734
1438.8	44.045
1276.2	54.918
1140.8	62.097
1073.7	67.007
1067.8	67.231
1092.7	64.938
1126.5	58.052
1188.9	48.021
1258	35.609
1332.3	21.587
1380.3	7.2111
1375.3	11.18
1326	25.08
1263.4	37.537
1233.4	47.434
1263	54.231
1329.9	56.436
1397.8	53.824
1402.5	47.381
1342.4	38.484
1214.6	28.636
1047.9	21.471
881.28	23
752.27	29
678.9	35.128
658.26	39.357
701.02	39.962
811.7	39
988.71	35.511
1181.3	32.696
1344.4	28.862
1443.1	27.019
1474.2	26.019
1430	24.839
1341.3	23.77
1236	20.616
1143.2	14.765
1083.1	9.4868
1073.5	5.3852
1108.3	10.77
1174.9	18.385
1258.6	26.571
1320.3	34.986
1326	43.29
1259.1	50.931
1122.9	59.228
935.23	65.192
769.44	67.476
656.41	67.082
627.17	62.362
611.21	53.263
550.46	40.817
431.34	27.857
328.16	19.723
410.95	23.431
3397.3	27.803
4066.2	19.925
4593.3	16.125
4958.7	13.038
5103.1	7.8102
4951.5	12.649
4457.3	28.601
3652	44.643
2660.5	58.241
1909	64.351
2141.9	61.847
3127.7	53.339
4192.6	44.102
5078.4	45.541
5713.4	57.315
6081	70.711
6206.6	76.026
6096	73.553
5719.6	63.071
5064	47.854
4154.8	31.016
3129.9	18.248
2446.2	11.402
2768.3	22.023
3821.3	41.012
4959.7	64.327
5825.3	86.093
6264.1	101.4
6223.8	106.73
5731.4	98.843
4887.6	79.322
3812.6	49.82
2662.2	22.804
1547.7	32.558
528.68	58.078
411.59	74.947
1336.6	79.246
2280	73.007
3236.3	57.035
4100.6	37.855
4750.5	24.083
5054.8	25.962
4932.1	33.541
4363.2	38.328
3391.8	38.471
2160.9	34.655
867.33	32.65
677.27	33.541
1664.4	38.079
2423.5	45.255
2908.8	54.589
3188	65.765
3420.7	76.059
3660.3	84.929
3869	90.686
3916.2	92.439
3680.8	90.918
3102.1	87.664
2211.6	81.884
1145.3	77.233
476.64	73.682
1271.7	71.197
2048.4	71.4
2492.2	72.45
2564.3	73
2313.4	73.348
1853.8	72.622
1378.5	69.426
1140.5	63.561
1228.1	57.201
1419	49.396
1551.6	41.231
1631.9	34.015
1728.1	26.476
1899.3	22.361
2127.4	24
2343.9	33
2486.8	46.098
2518.4	60.208
2440.9	71.847
2274.3	80.411
2065	84.404
1860.9	81.835
1700.1	75.591
1606.8	67.268
1560.3	58.523
1531.3	49.82
1462.8	43.829
1345.8	40.05
1180.8	39.205
994.9	41.976
847.33	47.424
803	54.378
891.28	61.131
1062	64.622
1245.9	66.483
1398.9	68.425
1494.6	69.721
1501.9	70.406
1403.4	69.34
1213	62.968
963.71	52.24
719.97	35.847
595	16.125
655.77	6.4031
822	26.077
994.14	41.4
1153.2	51.624
1293.9	55.579
1428.6	54.406
1538.7	50.12
1611.2	44.283
1606.6	39.812
1536.3	39.357
1399.6	43.186
1226	47.127
1057.1	49.031
947.1	48.836
921.43	45.354
972.89	40.497
1078.2	33.015
1201.8	26
1309.7	19.723
1405.1	16.643
1472.9	17.464
1498.5	23.345
1486.9	30.61
1436.1	39.217
1356.6	46.325
1258.2	50.931
1166.6	51.788
1084.5	48.332
1013	42.19
943.02	34.132
861.94	26.907
781.97	21.378
734.17	19.313
768.08	20.616
880.85	23.77
1036.5	29.614
1185.3	35.468
1301.4	39.56
1366.6	41.593
1376.9	39.699
1349.6	34.482
1284	27.203
1214.7	17.804
1158.5	9.0554
1127.8	4.1231
1151.3	8.0623
1210.2	14.213
1279.2	19.416
1325.5	25.962
1328.9	33.302
1280.4	41.785
1174.6	50.249
1029.6	58.523
884.64	64.498
742.87	66.03
643.18	63.561
571.14	56.08
512.14	45.88
440.28	32.016
374.01	19.416
345.69	12.166
425.96	15.62
3444.5	51.478
4276.6	46.098
4879.9	33.541
5195.5	16.125
5196.5	15.811
4882.5	36.056
4259	53.6
3381.4	64.938
2340.9	67.676
1461.7	61.294
1674.4	48.765
2821.1	32.249
4103.6	23.77
5242.3	30
6093.3	41.183
6567.3	48.836
6628	50.01
6278.1	45.804
5568.8	37.121
4597.1	27.019
3528.3	19.209
2663.9	16.031
2447.2	19.416
3013.2	27.295
3902.5	38.21
4774.3	51.662
5447	64.203
5856.5	73.824
5954.2	78.16
5713.5	74.465
5162	63.127
4319	43.932
3234.1	21.024
1990.9	9.2195
681.12	32.558
737.79	51.971
1968	62.642
3045	65.069
3884.3	56.648
4424.6	42.012
4660.2	22.361
4582.6	13.038
4223.8	25.807
3628.8	37.643
2864.3	44.011
1988.8	42.19
1067.4	38.053
313.34	38.053
901.72	47.265
1736.6	60.745
2489.5	74.277
3127.1	83.487
3620.5	87.098
3942.2	87.693
4058.8	85.988
3954.8	82.298
3610.1	80.062
3054.2	77.162
2338.2	74.947
1608.8	73.239
1213.1	73.763
1494.5	77.058
2048.7	81.707
2505.1	87.115
2715	88.549
2650.2	85.288
2339.3	78.16
1877.9	68.007
1413.2	56.851
1169.7	47.413
1267.8	42.379
1529.6	38.471
1762.8	34.059
1907.6	27.203
1960.1	17.72
1963.8	14.866
1956.7	27.459
1980.9	44.272
2043.5	59.034
2129.8	69.778
2222	75.928
2282.5	75.286
2279.8	71.344
2201.2	63.977
2047.7	56.639
1835.4	52.431
1585.7	51.264
1313.5	53.038
1046.5	55.362
807.96	57.28
663.54	58.523
700	57.871
880.76	56.4
1100	53.712
1296.4	50.636
1421.4	50.359
1469.9	51.624
1448.3	56.4
1369.6	61.033
1261.9	63.789
1125.5	61.984
970.23	55.803
817.72	43.382
701.4	26.306
673.89	11.402
743.14	18.028
884.33	33.242
1051.2	45.222
1230.2	52.345
1393.3	53.666
1533.3	50.99
1623.7	47.802
1642.3	48.374
1576	52.202
1429.3	57.315
1239	59.439
1061.1	57.428
954.77	51.108
971.51	42.19
1071.8	31.016
1183.9	21.932
1273	15.524
1324.5	12.166
1349.4	13.892
1354.8	20
1362.8	27.459
1372.6	36.139
1387.4	44.045
1392.8	48.754
1380.2	51.01
1334.4	49.769
1249.7	45.277
1115.7	39.56
944.05	34.015
766.74	28.178
624.05	23.854
588.88	22
680.41	21.633
850.87	23.77
1022.6	27.166
1167.8	31.385
1270.4	34.828
1320.5	36.401
1336.4	38.013
1331.3	37.643
1325.9	35
1323.1	29.682
1319.3	20.616
1300.8	9
1258.4	3.6056
1217.3	17.493
1177.5	30.594
1153.6	40.447
1146.1	48.765
1133.6	53.759
1108.7	56.798
1061.1	58.694
996.36	58.694
913.36	57.706
815.18	54.489
689.92	48.104
545.18	39.051
386.35	27.785
263.15	14.765
297.43	5
455.41	11.705
3121.8	37.643
4199.9	29.069
5057.7	19.723
5565.5	17.029
5650	25.495
5264.3	35.735
4454.7	43.324
3334.6	46.615
2131.7	45.044
1502.6	38.471
2188.7	28.302
3324.8	15.133
4361.9	3.6056
5178.7	11.18
5735.6	21.213
6039.2	27.785
6098.2	32.016
5907.6	33.615
5466.9	36.346
4786.2	39.115
3966.5	43.658
3237.9	48.6
2992.2	51.865
3415	53.6
4196.9	52.24
4958.5	50.567
5499.3	48.836
5735.9	47.011
5668.3	45.277
5351.8	43.658
4844	40
4167.3	36.056
3337.5	33.601
2331.5	37.108
1182.2	43.417
454.47	49.244
1625.6	51.225
2893.6	49.01
3968.7	42.202
4731.3	31.401
5084.7	21.213
5005.5	18.358
4530.1	23.022
3732.7	27.586
2736.6	27.295
1671.4	21.19
650.52	11.18
288.21	12.207
1007.1	29.53
1617.5	48.166
2157.3	66.31
2697.5	79.511
3216	89.269
3668.7	94.366
3973.2	94.81
4054.6	92.661
3858	88.955
3397.4	84.528
2745.2	81.884
2093.7	79.906
1758.4	78.294
1969.3	77.666
2435	76.322
2820.3	74.095
2963.6	70.605
2827	67.201
2454.4	62.394
1924	56.436
1384.3	50.359
1024.7	43.324
1003.9	36.715
1178	30.61
1374	24.759
1543.8	18.028
1717.9	10
1931.9	6.0828
2151.5	16.401
2329.8	29.53
2437.9	42.755
2448.3	55.444
2377.3	64.405
2245.9	70.007
2084.2	71.589
1917.3	69.635
1760.9	66.008
1615.1	62.169
1487.2	60.407
1372.2	61.717
1246.8	65.803
1127.8	70.937
1000.6	73.824
904.4	73.553
895.81	69.231
996.36	62.65
1149.7	52.345
1307	44.204
1406.7	39.962
1431.7	42.048
1372.7	45.891
1233.2	48.836
1038.5	49.204
822.47	45.88
634.53	41.11
558.2	36.235
627.8	33.838
800.94	35.341
1003.8	36.139
1200.7	36.125
1365.4	33.242
1491.7	28.018
1569	24.187
1584.7	27.166
1551.4	33.956
1460.3	41.677
1342.3	47.508
1206.8	49.396
1077.9	49.092
993.99	46.098
960.63	43.382
983.63	41.4
1059.9	41.11
1164.7	40.249
1282.6	38.833
1386.4	35.057
1462	32.016
1499.4	29.967
1493.2	30.61
1454	31.623
1382.8	34.713
1299.5	35.735
1208.8	37.537
1115.8	38.471
1027	37.696
938.14	36.878
859.05	34.205
788.56	31.016
745.42	29.614
754.48	31.623
843.71	35.847
994.22	40.311
1161.5	42.485
1303.3	42.297
1394.9	37.855
1402.8	32.249
1352	25.456
1263.8	18.601
1174.2	13.416
1123.6	7.2801
1122.2	1
1149.3	9.0554
1174.9	19.235
1176.7	30.414
1165.9	39.395
1144.5	46.098
1134.1	50.695
1129.3	51.624
1124.3	50.249
1091	49.244
1013.3	47.802
899.09	45.011
731.89	42.45
538.59	38.275
334.89	30.806
200.25	22.204
275.75	13.038
440.11	9.8489
3103.8	31.89
4402.7	25.08
5405.4	22.361
5938.2	24.698
5925.3	30.414
5389.7	36.359
4420.3	41.231
3222	42.579
2119.8	39.825
1781.8	33.242
2467.2	24.187
3437.4	13.601
4351.4	3.1623
5101.1	8.9443
5655.2	18.111
5980.2	23.707
6055	27.586
5850.6	29.155
5384.1	30.463
4696.1	33.526
3928	38.471
3300.8	45.044
3150.1	50.289
3564.8	52.697
4263.1	53.151
4933.1	50.537
5391.4	47.539
5563.4	46.174
5459.5	47.518
5138.1	49.193
4669.7	48.27
4077.3	44.553
3357.3	40.311
2463.4	38.079
1351.4	39.661
228.98	44.911
1433.3	49.193
2827.4	50.12
4030.1	46.174
4876.9	37.014
5263.4	25.962
5158.5	15.264
4599.7	10.44
3706.2	13.153
2645.6	15.652
1593.2	14.142
679.9	8.4853
298.74	8.0623
853.64	19.698
1497.9	34.928
2215.7	53.085
2946.8	71.169
3604.5	88.238
4061.6	102.08
4235.3	110.35
4094.6	111.22
3669.8	106.28
3037.5	95.718
2329.6	86.556
1748.6	82.735
1567.1	84.646
1816.9	88.685
2216.7	88.888
2539.6	83.096
2701.3	72.007
2657.7	59.135
2427.8	48.466
2079.6	44.385
1709.6	43.829
1462.2	41.231
1415.4	34.409
1481.4	23.087
1527.8	9.0554
1496.5	2.8284
1449.5	12.042
1515.4	16.279
1756	19.209
2103	27.459
2430.4	40.46
2658.9	55.803
2719.6	67.676
2619.7	73
2378.4	71.169
2044.8	63.285
1699.8	52.01
1423.1	45.804
1283	49.396
1251.7	58.009
1244.8	65.069
1159.7	67.742
974.21	66.098
723.94	61.4
577.92	57.035
727.33	52.773
1026.5	49.336
1285.7	45.618
1426.4	41.881
1422.7	38.419
1311.4	38.897
1148.8	41.617
1001.7	44.598
904.6	47.17
835.73	46.872
761.13	45.31
718.31	43.417
812.37	41.4
1053.8	40
1352.2	35.511
1600.7	29.155
1745.1	20.616
1756.8	13.416
1649	18.439
1476.5	29.069
1303.8	38.079
1183.7	43.105
1116	43.681
1049	40.817
947.89	36.125
814.96	33.242
730.69	34.059
793.39	37.736
986.58	40.497
1216.4	40.2
1406.9	38.328
1515.4	33.242
1541.7	31.321
1508.6	33.526
1450	39.395
1402.5	47.011
1382.5	51.865
1367.5	53.367
1318.5	51.478
1208.2	45.177
1028.5	36.77
814.63	29.411
646.17	23.854
631.13	24.698
745.76	27.313
889.87	29.275
997.38	28.636
1065.2	26.627
1114	23.601
1164.3	19.925
1222.5	17
1245.9	15.811
1223	15.62
1144.9	16.553
1055	19.105
1009.3	21.633
1040.7	24.187
1134.5	26.173
1215.6	27.659
1248.9	28.653
1238.5	31.113
1215.1	34
1201.9	35.511
1212.3	37.336
1209.5	35.777
1142.7	33.941
998.77	30.529
780.78	28.46
515.54	28.284
286.82	29.275
259.62	30.887
390	31.064
505.41	30.067
3807.5	35.511
3967.8	32.249
3878.4	29.833
3673.8	29.069
3454.2	29.732
3207.6	32.062
2808.8	33.121
2153.2	32.249
1255.7	31.016
672.12	27.731
1525.3	23.601
2570	19.026
3351	15
3769.5	13
3865.6	15
3830.6	18.028
3902.5	19.416
4213.9	17.493
4685.1	14.318
5135	13.454
5427.3	21.26
5510.3	31.401
5387.9	41.11
5092.1	46.043
4679.1	46.239
4237.8	40.224
3884.1	35.609
3715	36.892
3716.8	47.202
3748.9	60.308
3640.5	68.949
3289.4	72.111
2708.8	68
2005.9	57.801
1359.8	43.738
1049.6	28.46
1228.7	15.811
1690.6	11.662
2307	17.117
3013.4	25.632
3673.1	36.069
4119.9	44.283
4217.2	49.041
3907.4	46.819
3225.4	36.878
2306.8	21.26
1346.2	14.036
557.92	33.242
126.19	55.145
155.29	71.84
640.02	81.4
1477	82.377
2477	77.795
3420	72.56
4101.9	71.028
4391.1	73.348
4241.9	75.153
3726.5	72.918
2995.7	64.14
2240.3	49.336
1614.4	35.735
1196.1	34.67
1038.5	47.17
1255.5	58.241
1801.8	63.388
2447	58.83
2966.9	46.043
3216	28.16
3133.9	14.213
2738.5	25.298
2122.2	41.049
1439.8	52.839
822.14	56.009
338.51	50.537
242.03	37.802
719.2	21.932
1336	15.652
1972.4	31.623
2491.3	48.918
2791	60.745
2812.3	64.938
2595.1	59.548
2300.4	46.174
2123.7	26.683
2160	5
2271.7	15.524
2262.7	32.016
2034.3	42.45
1618.5	42.72
1161.7	37.054
954.22	25.71
1098.7	20.025
1303.3	27.659
1382.5	38.013
1327.2	43.658
1264.6	42.45
1318.8	33.541
1465.5	19.313
1561.6	16.155
1516.4	32.985
1293.7	50.774
945.05	64.07
629.94	70.214
637.04	68.659
896.66	62.129
1143.8	51.856
1304.1	40.706
1401.3	33.615
1486.3	31.016
1574.7	29.12
1651.6	26.476
1674.4	23.537
1603.3	25
1461.3	30.083
1274.6	36.125
1090.6	40.025
957.35	39.446
883.54	34.059
862.27	25.06
897.22	18.028
983.78	19.416
1118.1	26.401
1270.2	32.65
1400.3	34.176
1497.4	30.067
1541.6	22.091
1550.7	16.279
1514.4	23.324
1445.6	35.468
1344.8	46.098
1205	51.865
1037.5	50.99
871.35	44.721
723.19	34.366
604.1	22
513.75	16.155
442.55	21.633
430.94	29.547
522.12	34.234
681.23	34.928
832.44	30.529
938.69	24.759
959.94	20.518
897.57	21.26
801.59	25.495
731.96	29.069
731.37	31.145
771.9	29.411
799.73	26.249
781.21	21.633
742.01	18.788
739.07	18.028
815.67	22.361
938.45	26.173
1045.4	30.017
1098	31.401
1085.9	31.048
1042	28.071
999.71	24.042
958.92	21.19
911.44	23.409
812.51	28.636
641.68	34.059
416.31	38.588
226.6	39.812
274.88	37.483
3202.8	38.328
2833.1	38.484
2534.8	37.802
2477.5	34.928
2608.8	32.388
2726.9	29.53
2673.7	27.659
2412.8	24.739
2055.7	23.409
1807.8	21.471
1859.3	23.409
2103.7	25.942
2328.2	29.275
2451.5	29.206
2580	26.833
2899.6	21.587
3487.4	16.492
4229.4	17.464
4935.1	21.932
5480.4	26.249
5787.2	29.275
5868.3	30
5765.3	31.257
5532.5	33.242
5209.3	34.886
4811.9	34.205
4342.7	30.414
3831.5	26.173
3328.7	28.425
2876.2	38.21
2528	48.877
2253	56.569
2037.8	60.083
1897.6	57.385
1877.1	50.804
1999.5	42.544
2207.5	33.287
2411.7	26.173
2595.3	21.378
2763.4	22.136
2950.6	29.682
3143.3	36.62
3273.8	40.311
3262.8	37.696
3059.8	28.018
2656.9	12.649
2109.6	15.264
1507.7	35.735
960.97	53.907
649.06	65.97
861.45	68.884
1429	63.953
2141.3	55
2877.9	50.804
3503.3	57.201
3900.2	67.179
3978.6	72.56
3727.3	69.857
3207.9	58.034
2573.9	41.593
2042.7	30.067
1804.3	35.341
1811.1	49.244
1856	58.249
1861.4	62.032
1937.2	58.241
2197.6	48.754
2589.1	38.949
2921.3	31.016
3038.5	32.14
2848	41
2363.4	51.245
1707.7	59.775
1219.9	61.587
1403.2	55.227
1985.4	41.34
2494.6	27.586
2766.8	32.573
2763	52.811
2518.2	69.405
2131.4	76.851
1716.4	72.56
1396.8	55.362
1232	29.206
1173.4	5.099
1119.8	29.069
1007.5	49.649
819.35	58.249
579.15	52.612
338.99	36.878
172.24	16.279
205.94	19.416
278.47	39.699
290.66	51.884
250.06	53.151
224.08	42.379
262.84	23.601
342.5	8.0623
404.36	27.785
419.34	46.69
406.21	57.775
411.6	61.294
464.77	58.694
551.22	54.708
623.57	52.326
652.87	50.804
642.8	46.755
626.93	38.013
637.81	25
683.17	13.038
730.32	15.524
743.75	25.71
695.72	31.305
587.68	31.241
451.13	27.586
308.72	24.759
175.78	26.249
77.104	29.069
41.146	28.178
146.66	22.561
280.77	12.369
419.72	10.77
543.65	21.84
644.01	31.064
713.02	32.45
764.11	26.306
798.57	12.042
826.11	8.0623
832.25	28.018
818.67	44.385
764.51	54.562
691.9	55.082
608.21	46.69
536.06	31.906
473.8	15
429.16	11.662
373.48	24.413
307.35	33.526
237.21	35
178.93	30.083
162.37	24.042
177.05	22.204
200.08	26.077
203.44	30.414
190.6	31.953
154.77	30.887
107.22	30.232
60.166	30.806
40.361	32.558
47.539	34.205
47.17	33.106
13.038	29.411
57.385	25.962
151.03	27.514
254.08	32.016
345.09	37
403.92	37
431.12	32.802
424.79	23.601
404.38	14.213
416.36	15.811
476.25	24.352
548.63	33.422
603.33	37.59
605.21	37.054
565.74	31.953
2818.7	28.46
2111.8	29.275
1765.5	33.541
1921.8	36.62
2232.2	37.577
2417.7	36.497
2438.5	32.527
2397	27.459
2389	22.472
2431.5	17.029
2454.3	15.556
2411.7	19.209
2346.9	26.571
2390.6	31.257
2638.7	32.65
3038.8	28.46
3472.5	19.925
3855.9	7.2801
4174.5	10.63
4457.7	24.021
4729.6	32.757
4959.6	35.777
5081.3	31.016
5035.1	19.698
4787.6	8
4390.9	16.279
3943.1	29.155
3580.3	35.511
3388.8	33.541
3330.9	25.298
3306.8	23.087
3214.1	39.812
3032.3	60.208
2784.3	77.026
2519.4	84.315
2293.8	79.511
2123.6	62.968
2035	38.897
2010	15
2047.8	22.472
2146.6	40.2
2285.9	48.332
2461.5	45.651
2638.2	35.114
2786.1	28.16
2850.1	41
2764.8	59.076
2499.9	72.732
2087.7	74.465
1700.5	64.351
1695.9	44.272
2188.9	21.378
2874.1	18.028
3460.5	37.162
3799.9	51.662
3828.3	54.818
3552.4	48.765
3034.1	33.941
2379.3	16.763
1711.3	1
1204.9	12.728
1076.8	17.72
1372.2	15.297
1848.2	8.2462
2349.5	9.8995
2785.1	20.809
3088.5	29.275
3195.8	31.765
3078.3	28.792
2737.4	23.601
2222.2	23.77
1616.1	31.048
1053.3	39.115
807.03	42.72
1038.8	40.311
1434.7	32.311
1786.1	23.022
2031.9	21.541
2139.1	30.265
2093.5	40.224
1894.5	44.944
1576	46.53
1211	42.438
933.95	36.359
899.39	29.275
1046.1	22.804
1183.7	15.556
1196.4	8.0623
1072	9.0554
826.14	15.232
521.94	21.84
234.72	23.601
122.2	23.087
227.02	18.601
258.01	14.422
184.57	18.974
47.381	27.203
149.33	35.777
322.52	40.853
468.44	43.012
573.92	41.34
643.14	36.222
690.55	29.732
721.12	21.587
733.85	12.166
709.91	8.544
648.35	16.155
557.35	25.02
467.47	31.064
409.59	32.696
406.12	29.614
425.12	23.431
426.03	14.036
400.81	7
353.06	11.045
307.3	15
265.15	15.033
232.94	10.63
226.21	3.6056
258.09	10.44
329.78	20.125
419.95	27.295
495.06	29.155
541.65	24.759
552.06	15.033
543.77	8.0623
537.4	19.026
556.67	31.828
591.98	42.426
617.43	46.519
614.5	43.909
570.85	36.222
512.11	25.495
457.65	15.524
440.82	14.142
461.3	19.235
480.93	21.378
476.81	18.439
436.01	13.038
370.94	6.4031
286.78	9.0554
204.63	14.318
136.46	17
78.294	16.279
30.414	12.728
22.361	11.662
72.835	15.652
115.49	20.809
139.45	23.431
136.42	22.472
104.55	17.117
100.45	11.402
164.2	11.314
258.09	18.439
341.23	25.239
395.3	28.16
414.28	27.019
383.08	21.19
331.44	14.765
290.8	9.2195
299.25	10.77
378.11	17.464
478.44	22.804
550.37	27.019
586.26	28.636
570.21	29.069
2135.6	29
1808.4	12.53
1787.6	14.318
2097.9	34.015
2538.9	51.624
2941.6	61.717
3248.8	63.285
3447.1	56.4
3531.2	39.925
3494.3	19.026
3325.9	6.0828
3041.8	24.083
2693.9	37.202
2411.6	41.437
2343.1	37.947
2528	29.155
2846.6	21.932
3154.3	27.295
3366.1	36.497
3469.4	42.72
3516.1	41.437
3557.1	32.573
3606.8	19.235
3629.4	8.9443
3560.5	18.385
3380.8	28.46
3112.4	32.016
2848.3	29.428
2712.1	19.416
2750.3	7.2801
2904.5	18.385
3052.8	36.878
3134.4	51.894
3149.9	62.032
3146.5	65.863
3162.2	62.769
3193.7	52
3203.4	36.892
3155	18.974
3057	6.0828
2953.1	19.647
2894.6	34.132
2883.9	43.566
2869.2	50.606
2762.2	55.326
2504.2	59.816
2078.6	63.388
1529.5	65.192
973.7	62
761.43	53.907
1135.8	39.319
1679.3	22.023
2167.3	15.652
2552.2	30.414
2825.7	44.045
2994.5	51.74
3056.3	51.196
3006.8	42.544
2838.4	28.178
2528.6	11.18
2133.3	8
1779.3	20.248
1761.6	27.459
2188.5	27.459
2808.2	24.352
3356.8	22.023
3655.7	27.731
3616.1	38.013
3228.1	45.541
2540.4	48.466
1677.9	46.53
793.71	39.812
367.66	31.064
810.74	22.136
1133.1	18.111
1237.1	19.209
1224.4	20.025
1280.9	21.633
1473.4	21.401
1674.1	23.77
1734.4	28.018
1574.7	33.615
1183.8	38.013
636.33	40.012
217.82	40
669.07	36.878
1097.7	33.287
1319.9	29.428
1303.6	27.019
1076.2	24
697.45	21.26
278.4	19.235
134.46	16.125
416.66	15.232
569.23	15.524
583.36	16.553
492.41	18.358
345.58	20.025
196.54	22.847
67.268	26.87
109.04	30.676
263.87	33.377
435.73	33.601
589.67	30.871
681.04	26.019
681.49	17.464
583.43	8.9443
405.6	9.2195
257.29	17.117
333.81	24.352
519.76	27.803
652.34	28
698.02	25.612
657.18	21.024
563.22	17.029
482.02	14.318
472.47	14
519.03	15.264
562.26	15.652
565.83	17.029
537.11	19.416
496.03	22.136
467.46	25.298
460.56	26.926
457.74	27.295
447.93	27.586
426.36	29.428
401.28	33.106
385.63	38.079
366.28	43.463
340.24	45.222
296.33	44.944
242.43	40.2
205.88	33.242
212.25	23.195
250	13.454
284.31	6.7082
300.08	8.0623
285.24	12.042
252.2	12.207
214.77	10.44
200.52	6.7082
219.73	2.2361
248.94	5
266.1	10.05
255.98	12.042
213.64	13.342
140	11.18
54.037	8.544
85.094	6.4031
170.34	5.3852
243.79	8.0623
283.28	10.817
287.89	12.649
262.25	12.369
235.1	10.63
229.81	8.0623
250.7	5.831
276.42	5
280.62	5
256.04	6.0828
235.92	7.2111
276.59	9.2195
374.36	11.18
473.51	13.038
529.6	15.811
1710.2	35.777
882.45	16.971
1335.2	8.6023
2318.1	27.659
2994.4	45.607
3191.7	57.009
2972.1	60.877
2678.6	56.719
2774.5	45.177
3294.9	29.411
3766.4	16.401
3816.4	19.235
3295.4	31.064
2332.4	40.792
1550.9	46.325
2072.1	47.074
3137.2	46.615
3853.5	45.177
3960.4	44.553
3500.3	43.29
2835.2	41.049
2672.8	37.643
3264.4	34.176
3962.2	32.45
4224.7	31.064
3867.8	29
2986.8	24.187
2041.5	18.358
1991.4	14.142
2786.1	18.028
3453	27.074
3576.7	35.511
3164.2	41.146
2541.7	44.011
2387	43.863
2968.1	42.45
3677.1	40.706
4004.9	38.328
3800.2	32.985
3203.9	23.431
2654.7	8.544
2739	11
3351.2	32.45
3890.2	51.894
3989.2	68.593
3560.5	78.746
2706.1	81.744
1743.7	77.621
1331.6	65.765
1794.9	51.546
2355.1	39.56
2670.9	35.468
2786.7	40.853
2913.5	47.127
3181.8	51
3532.1	49.649
3752.1	45.188
3684.4	37
3258.6	28.302
2533.9	21
1705.9	18.028
1282.7	19.209
1703.5	23.77
2382.8	27.893
2899.9	32.45
3126.7	35.693
3053.3	37.736
2727.3	38.328
2220.4	37.577
1623	35.341
1028.4	32.016
520.13	27.803
237.95	25
326.93	21.401
453.88	18.974
550.58	17.72
666.03	16.971
822.82	17.72
971.75	20.224
1065	23.601
1060.1	27.295
944.07	31
727.36	34.482
448.63	36.359
193.02	37.054
255.88	35.777
471.84	33.838
632.71	29.017
711.12	24.698
713.45	19.313
644.01	14.318
525.52	12.042
365.77	14.213
179.98	18.028
71.568	21.401
248.31	24.352
418.48	26.306
537.89	26.627
579.64	26.926
535.67	26.306
423.26	25.71
327.34	25.239
407.18	23.601
606.54	21.587
782.22	19.105
857.07	15.652
792.77	11.402
589.41	7.2111
297.09	9.0554
179.94	15.297
482.83	21.095
735.87	25.239
856.44	28.071
810.16	27.295
629.23	23.259
391.01	17.72
330.35	12.369
514.89	12.083
682.44	17.029
726.07	23.022
645.12	27.659
495.55	28.16
420.79	27.019
509.91	26.019
632.15	26.926
676.25	31.385
616.16	38.275
508.21	43.463
464.25	47.413
534.05	47.676
617.74	46.011
622.1	41.195
529.14	34.132
393.51	26.249
368.18	19.313
507.13	13
642.57	8.0623
681.6	5
604.72	4.1231
460.98	4.2426
388.08	4.1231
483.05	3.6056
612.18	3.1623
653.29	3.1623
572.13	2.2361
389.8	3.1623
201.26	4.4721
280.56	5.831
459.46	7
550.25	8.6023
526.46	9.4868
417.5	9.8489
315.55	9.8489
359.34	9.4868
467.89	9.4868
521.18	10.296
468.39	11.402
322.23	12.083
173.74	12.207
265.93	11
432	8.9443
530.01	6.4031
521.16	6.4031
421.86	7.8102
273.31	10.296
167.62	12.042
766.05	33.287
851.24	14.866
1678	13.892
2364.5	30.871
2664.8	46.141
2497.9	54.009
1868.7	54.708
910.01	49.396
308.3	39.115
1292.6	25.632
2053.7	11.314
2420.4	2.2361
2396.4	15
2163.3	26
2067.2	36.125
2311.8	43.417
2680.8	47.539
2840.1	47.508
2629.2	44.011
2080	38.897
1487.7	37.656
1498.4	41.629
2113.8	48.332
2701.3	52
2959.4	51.546
2835.8	44.294
2444.3	32.894
2003.5	24.021
1769.7	27.893
1771.5	39.699
1787.2	49.497
1673.2	52.773
1504	48.549
1485.3	39.319
1678.4	27.074
1872.7	23.022
1861.3	29.069
1558.3	36.401
1039.6	37.483
652.71	31.145
968.93	21.401
1450.6	22.023
1699.8	39.925
1617.9	59.506
1235.8	75.505
684.68	84.172
410.11	85.329
816.25	78.791
1202.6	66.37
1420.9	50.359
1526	35.609
1624.2	26.249
1739.6	26.476
1784	31.623
1645.3	37
1282.3	40.025
814.6	41.037
760.16	38.328
1265.2	32.573
1733.9	23.854
1904.8	15.652
1694.2	13.928
1156.8	23.022
725	32.558
1297.3	39.205
2183.4	43.829
2884	45.354
3225	43.829
3143.2	41.785
2682.1	38.275
1980.7	34.482
1299.7	29.275
1079.5	24.207
1356	19.235
1611.2	15.524
1617.7	16.031
1354.8	19.647
894.29	23.431
384.73	25.632
324.17	27.295
655.73	28.601
834.59	28.178
818.26	28.16
684.57	28.862
602.4	30.529
724.86	33.601
922	34.713
1024	34.205
953.26	31.113
698.85	25.495
335.64	18.358
324.51	14.142
723.37	12.806
1051.1	15.033
1195.5	17.493
1124.2	19.209
851.04	22.361
437.64	26.476
137.41	30.265
505.59	33.541
804.97	33.242
919.2	29.967
841.58	24.515
613.5	20.025
357.97	17.029
367.61	16
574.91	15.133
707.42	12.369
685.62	10
521.44	11.705
267.24	18.439
106.38	25.08
293.82	29.155
415.56	29.53
404.25	26.306
266.83	20.616
92.195	16.155
232.74	18.028
423.56	22.023
516.05	27.074
485.41	29
336.26	29.155
108.06	27.019
150.81	26.077
360.91	27.586
481	31.016
483	35.609
374.35	40.162
187.84	43.174
61	44.553
227.77	43.681
338.86	40.262
360.27	34.655
297.85	28.443
210.49	21.024
209.01	15.232
298.24	9.8489
358.75	7.0711
355.13	6.4031
287.8	6.3246
212.17	5.3852
212.64	4.4721
271.71	4.1231
305.67	4.2426
273.8	5.099
177.1	5.3852
55.317	6.4031
122.59	6.3246
236.23	7.2801
295.82	7.0711
298.1	7.0711
255.74	6.7082
216.31	7.6158
228.4	8.2462
271.83	9.2195
292.66	10.198
270.14	11.705
208.12	12.806
144.62	12.166
133.82	11.705
180.22	10.63
229.03	8.2462
266.61	5.099
302.61	3.1623
333.8	5
347.52	9.2195
2189.7	30.067
2351.2	23.854
2560.7	26.42
2710.3	33.734
2714.1	38.471
2533.1	40.311
2202.1	39.013
1835	34.438
1643.5	28.425
1777.9	22.561
2138.7	17.72
2525.9	13.892
2812.4	13.892
2944.4	20.1
2909.9	28.601
2719.2	37.363
2410.9	44.598
2031.5	48.826
1656.1	51.039
1389.8	50.448
1313.4	48.052
1422.5	44.721
1614	40.719
1797.9	36.139
1917.8	31.623
1957.9	26.306
1903.8	23.854
1768.7	24.698
1575	28.792
1369.7	35.114
1229.2	41.881
1223	45
1353.6	44.944
1540.4	39.357
1698.6	29
1772.3	16.763
1730	8.2462
1581.3	16.401
1373.5	25.495
1213.8	29.967
1227.1	31.321
1399.4	33.302
1587.1	43.417
1651.7	59.908
1503.4	75.664
1122.3	86.977
525.84	91.411
231.49	87.727
1004.1	76.322
1708.3	59.076
2222.5	40.46
2464.7	25.318
2393.2	14.866
2023.5	12
1418.6	13.928
684.83	19.416
86.377	29.682
698.85	38.21
1138.7	43.382
1344.4	42.942
1344.9	37.108
1265.9	29.155
1305.9	27.659
1561.2	37.696
1924.2	49.769
2239.1	58.523
2410.9	61.4
2394.7	57.079
2196.2	48.021
1848.6	35.777
1413	23.087
960.49	12.53
627.99	7.6158
632.14	11.18
870.98	16.401
1108	22.023
1249.7	27.295
1271.7	29.682
1174.8	28.443
975.89	25.179
718.47	23.537
455.21	25.71
261.37	31.385
202.62	37.643
211.95	40.311
215.2	40.2
278.64	35.735
448.04	29.732
658.29	23.77
848.16	17.117
974.61	12.806
1020.8	11.402
987.7	13
905.45	15.62
811.58	18.682
749	22.023
715.94	24.352
688.51	25.807
640.15	26.249
567.24	26.833
500.35	25.495
472.63	23.022
491.25	19.647
523.24	15.811
530.18	13.928
497.77	12.649
428.85	12.53
338.03	10
243.89	5
161.77	4.2426
94.202	12.728
37.202	21.541
41.593	28.071
86.608	31.906
113.46	31.765
109.46	28.16
73.355	22.627
25.179	17.029
83.738	14.765
160.15	17.464
209.88	20.616
223.45	24.331
201.02	27.019
169.1	28.231
176.69	31.145
239.28	33.601
307.03	36.401
347.8	39.051
345.49	41.773
312.8	43.417
269.25	44.283
243.31	41.881
245.7	37.054
248.09	29.547
227.59	21.932
191.02	14.765
161.93	10.296
181.69	8.9443
226.11	8.2462
250.69	5
234.56	0
173.69	5
99.489	10.05
117.39	13.892
212.42	14.765
286.94	14.142
317.15	11.402
295.36	8.544
234.16	8.0623
142.44	8.4853
64.351	8
81.786	6.7082
129.5	3.1623
144.68	5.3852
134.24	11.18
114.04	15.811
108.23	19.209
116.28	20.1
115.16	19.235
90.471	15.652
33.734	10.44
44.272	5.3852
128.79	4
206.63	7.2801
263.12	11.662
295.31	14.866
2577.1	28.16
2542.4	25.495
2508.3	26.019
2453.5	29
2353.5	32.558
2185.1	35.114
1946.1	36.235
1684.4	34.713
1511.2	31.048
1536.5	26.907
1781	22.472
2126.9	18.248
2456	15.556
2683.8	17
2760.1	21.26
2666.2	28.862
2419.9	37.643
2056	46.011
1646.6	52.393
1304.3	55.082
1175.3	54.452
1315.7	49.729
1596.3	42.72
1887.2	34.059
2114.3	27
2232.6	22.672
2219.1	25.179
2068	29.732
1809.5	35.511
1519.3	39.56
1361.5	42.521
1453.8	41.976
1710.2	38.601
1955.9	31.828
2051.5	21.587
1955.8	10.44
1682	1.4142
1328.3	10.05
1064.7	18.439
1065.1	26.306
1244.4	32.45
1386.6	41.231
1377.2	50.99
1201.7	60.828
907.2	68.593
609.79	75.166
524.17	77.492
711.16	76.158
971.77	71.421
1223	62.362
1453.6	51.662
1644.6	41.012
1756.2	30.083
1740.5	21.378
1561.7	15.264
1223.5	13.454
779.61	16.553
410.89	21.024
582.64	27.203
998.87	32.28
1383.2	35.468
1721.6	38.013
2050.9	39.217
2380.1	41.629
2662.1	46.098
2817.1	51.624
2770.2	57.245
2472.6	59.076
1949.1	56
1262.9	47.17
568.26	34.132
423.49	19.925
837.34	12.806
1072.8	22.361
1041.5	33.941
780.3	40.162
493.92	39.459
658.02	34.409
1076.4	23.324
1394.9	12.53
1505.5	11.705
1380.2	21.541
1061.3	29.698
666.01	35.44
470.37	36.139
685.05	33.941
947.75	29.411
1101.6	23.195
1157.2	17.088
1183.4	16.155
1250	19.723
1357.5	24.839
1438.3	29.12
1422.1	29.614
1285.9	27.803
1040.1	21.954
740.9	15.524
474.22	11.18
351.69	15
376.02	20.616
392.23	24
354.28	24.187
305.87	19.723
327.54	13.038
416.48	5
494.83	4.4721
514.76	10.05
474.65	12.806
398.15	13.038
331.67	12.207
309.59	15
321.93	22
318.22	29
271.75	34.234
189.4	36.715
96.255	34.438
107.56	29.428
189.72	22.627
254.81	15.133
285.11	9.434
276.02	6.3246
238.16	8
189.91	13.342
157.49	21.401
181.16	32.696
243.07	42.297
303.49	50.804
339.72	54.626
346.03	54.231
317.55	49.092
263.32	40.817
206.49	31.257
181.37	22.204
190.68	17.464
213.44	16.155
218	16.401
200	15.232
178.83	13.601
164.22	10.77
167.84	9.434
170.56	10
163.62	9.8995
145.91	9
138.16	6.4031
162	4.1231
196.62	2
221.73	2.8284
219.53	5.099
184.32	8.0623
125.2	10.44
52.631	12.649
45.793	13.601
103.41	12.042
141.9	7.6158
148.01	4.1231
126.56	7.2111
82.62	14.318
34.67	19.647
37.336	22.672
76.236	23.087
104.02	19.416
120.67	14.036
139.01	10.77
167.97	13.601
203.67	19.925
231.48	23.324
2845.3	37.014
3038.5	30.083
3118.1	23.087
3060.1	18.682
2854.6	19.698
2534.8	24.083
2156.9	29.732
1847.1	32.985
1723.2	35.609
1785.2	36
1912.5	34.205
2009.2	32.016
2056.3	27.514
2084	22.627
2127.3	18.868
2171.8	21.095
2175.5	28.46
2106.9	39.319
1986.9	48.6
1886.2	54.424
1893.4	57.489
2014.5	56.639
2166.7	52.345
2245	45.651
2195.2	37.577
2022.2	29.275
1770.5	22.804
1508.2	19.416
1300.7	20.248
1190.5	25.02
1184.4	31.765
1279.2	37.216
1448.8	40.05
1651.8	40
1826.2	35.735
1930.1	26.571
1953	15.232
1918.8	8
1868.5	20.224
1829.1	34.67
1772	48.104
1642.9	58.464
1393.5	65.054
1013.8	68.154
549.48	68.154
230.59	65.856
537.49	62.769
845.06	60.033
977.05	57.697
926.01	55.317
790.6	53.16
824.51	49.649
1132.5	43.012
1514	35.847
1785.3	26.306
1834.5	18.028
1622.5	15
1181.8	18
701.74	23.409
873.11	27.203
1592.6	31.145
2321.6	34.828
2888.7	41.195
3212	49.679
3253.6	58.009
3018.3	63.82
2551.3	65.788
1921.2	63.561
1211	54.452
524.58	41.761
75.286	25.318
482.89	9.2195
690.89	11.705
685.29	24.698
486.59	33.838
153.38	37.483
266.66	35.44
667.99	29.206
1000.2	18.601
1208.5	9.8995
1269.8	13
1183.2	23.022
972.05	31.016
672.16	35.468
334.38	35.847
133.54	34.713
415.93	30.017
718.09	26.476
972.01	23.77
1161	24.352
1273	25.942
1306.8	27.659
1264.7	26.926
1176	24.739
1078.1	20.025
1008	15.297
961.62	11.402
923.48	10.05
854.13	12.042
733.04	14.866
565.39	15.62
373.27	15.232
183.35	13.038
54.083	10.296
146.28	6.7082
262.84	3.1623
377.22	0
489.32	4.1231
579.29	7.6158
630.7	11.662
618.58	16.031
545.26	20.616
416.48	24.042
279.57	28.16
208.47	30
255.54	31.016
323.52	30.232
351.34	28.792
335.39	25
277.22	21.401
203.6	17.117
138.97	13.153
105.68	12
118.61	18.028
167.57	29.155
230.1	39.699
290	49.031
334.79	54.708
345.89	55.973
320.41	52.173
264.64	43.681
198.12	31.241
149.79	18.601
154.55	11.662
184.44	18.028
206.39	24.207
205.23	27.313
181.6	26.306
142.95	21.26
102.18	15.133
78.549	11.402
101.12	12.207
147.28	14.56
188.1	13.038
219.67	9.0554
233.01	3.1623
228.74	5.6569
219.35	13.038
205.18	19.209
187.97	21.84
166.36	21.19
143.18	16.401
131.65	9.0554
146.84	2
182.49	8.6023
209.91	15.297
206.9	20.125
173.05	22.361
115.16	22.361
92.022	19.209
160.1	16.125
247.12	13.892
311.52	13
332.4	14.56
313.05	15.652
253.5	16.553
3346.8	36.359
3593.4	30.017
3558.4	24.083
3285.7	18.248
2883.4	16.492
2494.6	19.313
2233.4	24.207
2095.2	30.414
1993.6	36.014
1835.1	38.588
1627.2	39.825
1470.3	38.013
1501.5	33.121
1740.2	25.807
2057.9	18.385
2335.2	16.125
2509.6	23.022
2562.1	33.242
2503.6	43.738
2353.7	52.498
2142.1	58.822
1892.8	60.877
1644.3	58.728
1440.7	52.953
1344.2	43.324
1390.6	32.558
1549.4	22.361
1750.2	16.125
1919.4	20.248
2005.4	27.893
1988.2	34.928
1866	40.311
1670.8	42.579
1453.8	41.146
1270.9	35.777
1169.2	27.893
1177.8	18.385
1294	14.422
1490.9	23.022
1703.2	33.956
1856.5	44.598
1876.7	53.075
1717	58.189
1374.8	62.032
936.24	65.192
677.89	68.25
920.21	70.178
1295.5	71.063
1503.9	69.462
1435.3	63.953
1080.1	55.902
550.73	45.188
539.42	34.525
1182.4	26.019
1748.8	20.025
2050.6	19.026
2014.9	18.439
1677.4	18.358
1264.8	17.804
1323	18.248
1983.4	21.932
2736.3	28.302
3300.7	37.014
3541	47.413
3424.6	57.689
2981.4	66.272
2312.5	69.857
1542.8	67.801
825.38	58.549
365.17	44.385
433.46	26.077
554.56	9.2195
515.74	16.763
347.51	30.463
128.81	38.833
181.97	40.112
382.52	34.015
554.71	22.204
709.11	8.0623
860.45	6.3246
986.41	17.692
1049.7	24.166
1016.1	26.077
866.39	24.187
618.05	21.378
371.17	23.195
429.2	26.926
740.3	30.414
1046.9	29.698
1279.7	24.698
1405.2	18.358
1429.3	15.556
1362.3	20.616
1231.5	27.659
1064.2	29.732
899.45	27.074
766.02	20.125
688.24	8.6023
659.82	6.4031
635.71	17.692
585	26
482.93	29.155
331.61	26.627
167.86	20.125
152.32	10.05
307.39	1.4142
449.11	10.63
536.4	17.117
565.24	20.616
538.28	21.26
477.85	18.682
408.93	16.031
354.87	14.318
327.73	15.556
319.23	18.682
311.08	23.087
292.73	28.601
269.14	33.015
249.55	35.847
239.4	34.482
240.96	29.069
246.08	19.647
251.21	12.042
248.36	19.723
242.01	34.482
233.62	47.265
229.81	55.471
223.79	58.181
220.54	56.009
211.46	47.413
204.97	35.805
202.63	21.587
206.86	10.198
214.79	8.0623
220.78	15.652
220.48	21.26
208.06	23.537
186.04	22.804
163.47	19.849
147.67	17.117
145.09	13.038
155	10.198
170.65	8.6023
187.1	6
196.21	4.4721
203.33	5
202.48	7.2111
196.81	11.045
184.02	14.422
163.47	16.763
141.01	17.088
126.19	16.125
125.72	12.369
147.65	9.2195
172.35	8.9443
188.52	12.806
182.73	18.111
159.45	21.095
129.63	22.847
122.97	22.561
163	19.849
224.83	16.031
275.26	12.207
300.85	10.198
288.67	8.9443
244.1	10.296
3680.7	47.17
3996	42.19
3948.5	34.234
3594.6	22.361
3048.8	14
2447.7	18.788
1903.9	31.048
1498.9	41.593
1248.4	46.4
1173.7	47.927
1284.4	43.186
1539.7	34.67
1841.2	23.022
2103.3	12.53
2272.7	11.662
2342.7	19.723
2325.8	27.659
2251.2	33.526
2158	38.21
2070.9	41.593
1996.6	44.598
1932.7	49.396
1869.8	54.009
1801	56.365
1721.8	55.444
1631.9	49.477
1548.8	37.483
1488.2	23.409
1469	16.125
1496.7	28.231
1549.1	43.105
1606.6	53.31
1655.9	55.803
1694.4	51.039
1719.8	40
1737.4	27
1733.9	23.77
1700.6	32.558
1633	42.012
1526.1	47.011
1389.4	47.011
1226.2	43.463
1042.5	43.681
854.64	50.359
709.98	60.531
696.15	68
836.3	70.292
1027.9	66.761
1158.7	58.215
1152.7	46.239
969.84	37.216
604.01	34.132
104.39	36.125
481.48	38.275
1026.4	35.903
1453.9	28.284
1705.7	18.682
1798.8	14.142
1847.4	22.472
2038.5	36.222
2440.2	46.487
2934.2	53.759
3335.6	56.303
3499.9	55.145
3343.5	51.43
2875.4	48.166
2168.3	44.944
1349.2	43.046
640.47	40.817
547.01	37.577
847.26	33.242
967.19	29.967
848.64	29.069
552.46	29.614
185.56	32.016
162.54	32.14
365.66	29.732
428.95	28.018
431.43	25
562.31	22.561
836.75	20.591
1111.8	16.763
1279.5	10.817
1288.2	4
1137.8	5
887.72	12.369
616.29	18.028
423.99	20
350.35	18.028
391.07	13.038
574.67	6.3246
890.16	4.2426
1247.3	11.18
1545.2	16.279
1708.5	19.416
1685.8	18.974
1477.9	14.866
1123	10.198
697.41	5
283.83	5
43.012	9.8489
235.75	14.213
283.59	17.263
219.16	18.974
113.28	17.692
104.24	14.318
136.69	8.9443
84.024	5.3852
77.621	9.0554
301.04	15.62
543.16	19.416
737.91	21.378
833.46	21.024
796.64	21.095
643.69	25
423.83	31.145
272.99	38.079
345.31	41.012
458.88	40.719
483.34	35.468
402.75	25
268.78	12
252.45	7.0711
389.74	22.204
509.34	35.847
538.42	45.486
468.15	51.245
320	51.624
150.88	47.508
72	39.56
135.68	30.265
138.08	19.698
74.813	11.662
133.87	7
288.17	10.44
421.6	14.318
481.33	18
454.07	20.881
342.04	23.601
192.43	23.324
143.89	22.091
252.16	18.028
330.82	12.806
339.86	6
283.38	2.8284
231.4	9.4868
251.72	14.422
310.89	18
327.47	19.416
272.68	18.385
152.96	15.811
79.612	12.083
225.36	10
353.9	11.045
414.45	13.601
389.22	16.031
283.21	18.439
125.8	18.682
61.074	17.72
203.83	16.401
304.38	15.033
351.02	13.416
349.59	13.038
333.95	13
322.08	13.416
309.25	14.213
3897.1	40.262
3722.1	45.453
3222.9	44.385
2574.2	36.346
2071.2	21.26
2006.7	2.2361
2279	20.1
2560.6	41.11
2646.4	57.28
2482.5	65.521
2093.7	63.032
1538.9	51.788
968.72	31.385
808.34	7.2111
1307.8	18.111
1943.9	39.395
2475.4	52.802
2794.9	55.902
2846.2	49.031
2641.6	37.696
2233.1	32.558
1765	45.398
1450.8	62.241
1470.9	72.918
1710.5	73.007
1936	61.685
2022.5	40.608
1957.9	14.56
1784.3	18.439
1577.6	42.438
1430.1	59.135
1390.3	65.803
1437.5	62.201
1517.9	52.154
1587.1	40
1631.6	32.894
1654	32.985
1661.1	33.541
1657.1	30.806
1628.1	25.942
1555.7	27.459
1427.1	39.446
1238.9	52.887
1008.3	62.129
764.97	64.885
546.88	61.555
417.48	53.535
433.25	46.519
556.18	44.385
697.71	46.84
799.13	48.166
823.42	46.69
751.47	39.812
628.91	30.806
633.55	22.472
947.42	20.248
1467.1	22.804
2073.5	25.962
2681.3	26.571
3226.1	29.155
3655.5	34.928
3891.8	43.267
3893.1	51.74
3618.6	57.009
3071.7	59.008
2292.7	57.94
1369.9	53.075
449.73	46.957
501.76	40.2
1108	34.482
1428.7	29
1421.6	24.515
1120.5	20.591
618.1	20.224
246.11	22.672
675.01	27.074
1091	30.232
1297.2	31.623
1273	30.676
1049	27.203
712.37	22.023
359.3	15.556
127.02	9.0554
221.36	6
388.2	8.0623
613.59	11.314
905.27	14
1186.4	14.142
1369.9	14
1399.8	12.806
1254.3	12.369
991.62	13.928
775.86	14.765
832.76	15.297
1099.7	15.811
1346.6	16.125
1457.1	16.279
1404.7	17
1213.5	16.971
932.04	17.029
648.74	15.811
479.74	13
500.9	10.198
602.07	6.4031
665	4.1231
642.25	2.2361
527.68	3.6056
347.14	7.0711
260.4	12.042
459.74	16.763
731.16	21.378
948.23	24.413
1063	23.854
1062.2	20.881
957.68	18.682
805.97	20.248
665.01	27.659
582.55	34.132
521.2	37.59
429.05	35.228
302.23	28.071
273.65	15.264
434.77	5.831
614.63	20
720.07	35.057
704.59	46.065
562.57	51.614
331.18	50.804
104.29	44.147
253.87	35.511
448.48	25.456
551.27	18.439
560.04	14.866
499.63	12.042
428.43	7.8102
395.85	8.0623
383.68	13.153
341.87	20.025
237.49	26
86.47	28.284
113.6	25.632
278.29	21.024
394.93	14.765
445.41	6.4031
429.8	1
372.94	7
322.22	11.705
294.16	14.213
272.68	16.643
217.7	18.248
116.76	17.464
22.847	16.279
156.11	13.153
258.03	11.314
305.94	11.402
293.85	15.232
247.12	18.682
231.37	21.26
302.95	21.587
386.35	19.647
427.8	17.205
406.5	15
324.08	14.318
201.26	14.318
92.612	15.133
86.764	16.125
3438.8	32.894
3085.9	44
2559.5	48.301
2070.5	41.183
1910.1	26.249
2159.3	17.464
2542.5	34.928
2806.2	55.758
2833.6	70.257
2604.8	75.073
2175	67.082
1657.4	50.478
1264.8	33.061
1292.1	31.064
1691.1	43.046
2160.7	53.367
2539.3	53.263
2744.2	42.107
2742.8	21.471
2523.8	4
2130.7	29.614
1630.9	50.249
1209.8	63.063
1148.2	66.408
1454	60
1812.6	46.043
2024.9	30
2025.1	15.033
1815.1	11.18
1472.5	18.028
1178.2	24.515
1182.3	28.601
1481.2	34.132
1809.7	40.447
2004.4	48.384
2007.9	54.562
1829.1	57.706
1553.8	56.859
1319.6	48.549
1277.8	34.015
1408.3	15.811
1553.4	10.77
1597.1	33.287
1493.7	51.884
1255	63.198
936.03	65.605
587.74	55.973
270.6	37.108
194.13	12.806
441.78	13.342
718.23	35.847
959.17	49.396
1112.1	53.151
1133.5	45.967
1048.2	33.015
1069.1	21.84
1494.9	24.166
2263	32.757
3148.6	34.205
3948.8	25.06
4508.2	10.198
4708.5	21.401
4502.1	45.706
3902.1	65.795
2977	76.118
1862.7	75.027
729.55	63.127
388.06	41.437
1121.4	23.259
1552.5	29.411
1636.8	46.755
1423.9	57.271
1026.9	58.694
687.67	50.99
735.24	41.593
1001.9	39
1177.6	43.566
1161.9	48.508
957.68	46.615
614.49	38
207.62	23.022
259.38	5
627.35	13
927.16	24.839
1139.8	28.284
1276.1	23.77
1324.5	12.806
1277	2.8284
1122.6	15.62
861.64	26.249
547.69	30.364
442.4	27.459
750.47	19.313
1143	16.763
1456.5	27.019
1617.8	38.897
1602.3	46.39
1410.1	46.648
1078.3	39.56
667.52	28.636
249.1	18.028
190.16	17.263
442.6	23.345
568.68	25
546.98	20.809
392.67	10.77
147.14	4.1231
154.35	19.105
431.74	33.242
651.72	41.231
781.45	42.426
813.32	37.363
757.49	24.739
642.36	8.6023
504.95	9
379.03	25.08
285.51	35.228
217.85	40.012
167.72	38.833
132.28	32.757
132.26	26.173
163.53	25.298
207.51	32.28
241.01	38.91
277.56	41.183
306.79	39.013
332.1	31.765
329.68	23.345
295.37	17.692
229.18	19.105
161.11	23.022
161.55	25.08
232.23	23.854
300.7	20.396
340.31	19.105
341.62	20.616
315.29	22.361
286.4	21.84
269.06	18.028
255.81	12.042
219.35	2.8284
150.48	5.3852
46.098	12.53
97.529	18.028
224.77	19.723
331.23	21.213
394.61	23.345
400.99	26.306
356.8	29.155
275.63	29.833
181.71	29.155
114.74	25
99.459	20.125
96.047	14.318
70.767	10.198
35.228	3.6056
99.161	3.6056
187.54	13
272.88	21.024
324.72	28.862
345.78	33.422
337.29	33.061
298.94	27.459
258.36	17.088
213.94	4.4721
184.59	7.8102
4516.8	4.4721
3499.7	18.028
2047.9	29.069
583.38	34.655
1493.2	35
2820.8	36.62
3642.2	42.154
3802.2	51.923
3287.7	62.769
2234.2	69.642
916.31	71.554
755.48	67.676
1809	60.902
2447.9	56.569
2495.5	55.866
2018.8	55.326
1383	53.6
1502.5	45.891
2347.6	34.015
3064.6	26.401
3291.2	37.014
2911.8	54
1971.5	67.357
651.92	72.567
806.13	68.542
2080	54.378
2943.3	35.128
3217.4	14.422
2871.6	10.05
1977.6	19.235
735.74	19.026
636.48	11.18
1830.6	15
2662	38.21
2998.9	61.685
2802.8	79.831
2158.9	87.046
1224.6	81.744
395.74	63.569
1012.4	36.359
1767.3	11.705
2228.5	35.128
2363.5	60.803
2196.6	75.584
1814.6	78.447
1319	68.007
835.13	48.166
594.76	26.42
783.72	19.925
1116.2	35.609
1388.8	47.381
1528.4	50.99
1515.3	47.011
1385.4	38.21
1287.1	28.071
1479.5	21.024
2025.6	17.804
2741.8	14.318
3447.1	12.042
4001	14.866
4317.7	22.204
4320.8	29.833
4007.9	35.44
3401.8	37.643
2584.3	37.736
1657.4	39.85
747.99	41.049
194.37	42.202
713.76	38.949
1076.6	33.971
1201.7	28.284
1126.4	29
904.12	37.014
599.16	46.174
292.28	50.01
260.11	50.249
542.31	46
826.2	42.521
1029.8	40.025
1103.8	40.719
1006.5	40.311
743.5	36.688
394.53	28.844
477.77	21.213
974.61	20.1
1451.1	26.42
1778	31.016
1879.3	31.016
1725.6	26.42
1338.3	19.105
776.96	20
224.32	29.967
659.64	40.719
1245.1	46.239
1691.3	47.011
1938.3	45.222
1969.3	41.049
1809.9	40
1502.4	42.802
1132	44.553
808.45	42.802
672.6	36.014
724.53	26.173
804.11	13.038
808.39	6.7082
733.7	16.763
635.41	26.077
588.12	31.064
608.38	32.202
632.72	29.732
577.38	25
431.02	18.601
243.73	12.369
280.94	10
525.48	12.53
740.3	17.464
851.39	21.541
823.81	25.632
675.39	28.178
436.06	31.321
205.55	34.132
271	37.336
471.5	38.184
597.45	37.336
623.25	34.015
545.05	28.018
401.97	21.213
243.29	14.142
150.03	11
205.91	13
280.59	17.72
322.52	20.518
324.72	21.84
305.12	22.136
276.52	21.401
243.45	20
211.56	18.601
186.39	15.811
166.65	12.649
160.56	8.6023
166.41	5.099
179.96	0
206.31	5.3852
227.65	10.44
240.83	14.765
244.59	19.647
236.55	22.472
223.13	26.476
213.56	28.844
209.77	30.594
197.02	32.202
171.68	31.257
147.51	28.425
137.93	23.087
152.07	15.62
155.24	7.2111
127.14	8.544
59.414	18.439
58.258	27.166
191.64	33.015
324.56	36.139
435.19	34.438
502.48	28.792
515.12	20.591
468.67	13.038
393.55	14.036
4228.3	15.297
3127.9	6.0828
1707.5	8.9443
205.8	22.023
1315.2	35.468
2477.3	45.122
3176.8	51.856
3318.4	55.036
2908.6	58.138
2050.6	62.65
988.16	71.561
678.45	80.808
1509.3	88.233
2099.8	88.363
2191.7	81.345
1757.4	68
891.34	51.856
387.07	40.719
1485	44.102
2423.7	55.57
2938.8	64.031
2916	66.611
2371.6	62.032
1511.2	51.225
1090.9	37.855
1839.6	24.187
2707.6	14.56
3174.8	7.6158
3081.2	5.831
2439.4	10.77
1439.4	19.849
866.94	30.083
1707.3	38.21
2622.8	44.777
3097	48.6
2999.8	49.729
2347.7	49.254
1286.4	47.011
252.77	42.438
1283.5	33
2245.5	22.023
2796.5	19.799
2862.9	33.615
2492.6	51.078
1823	64.031
1055.6	70.434
550.89	68
739.38	57.315
1044.6	44.181
1209.3	36.688
1278.1	43.417
1289.8	56.515
1196.3	65.734
898.18	67.476
454.61	59.414
876.58	44.045
1946.8	25.612
3107.3	17.493
4132.1	29.698
4834	43.012
5077.1	49.406
4822.8	48.466
4118.3	39.205
3095.7	27.313
1932.9	18.682
825.07	24.083
105.77	33.526
623.03	40.361
815.59	39.217
701.85	32.388
404.26	19.723
189.53	8
397.59	20.809
557.9	37.855
612.73	51.865
698.09	60
945.41	64.008
1265.7	60.605
1497	53.935
1517.9	45.222
1284	37.054
822.62	32.802
374.62	31.953
770.46	32.28
1393	32.45
1855.5	30.15
2062	26.87
1979.4	24.739
1627.2	24.042
1080.6	26.249
446.79	30.067
289.83	32.802
822.65	35.511
1248.9	38.275
1514.4	41
1629.1	42.72
1601	44.553
1461.1	44.688
1231.5	43.012
955.34	39.408
685.14	33.242
530.13	26.926
566.37	18.788
672.16	12.53
736.55	10.44
731.31	14.142
697.29	19.416
693.35	23.087
736.13	26.249
770	27.659
730.74	27.166
575.81	24.187
321.73	20.616
76.837	16.155
366.61	14.142
652.77	15
835.4	20.396
882.42	26.401
791.65	31.016
595.27	34.482
386.15	36.715
334.27	37
478.88	36.235
612.66	34.409
653.61	30.265
598.32	26.249
455.8	20.518
268.58	14.318
92.445	8.544
110.28	7.0711
208.87	12.042
262.62	18.358
287.62	23
313.47	26.42
344.22	27.295
367.21	26.173
359.42	22.023
308.65	16.763
213.6	10.44
87.664	3.6056
50.22	2.2361
169.92	7.6158
256.33	10.817
300.22	12.042
292.58	13.416
239.93	13.892
152.09	15
42.438	17.493
74.061	21.024
186.36	25.179
278.82	29.732
339.4	31.78
369.69	32.696
359.54	30.017
312.16	23.537
240.78	14.318
173.74	10.44
176.14	19.723
262.13	31.321
364.23	40.817
457.37	45.398
513.89	44.598
533.4	38.013
515.64	29.206
468.52	23.259
394.29	25.179
3913.9	6.7082
3002	2.8284
1975.3	6.3246
1306.4	14.866
1504.7	23.431
2054.1	33.242
2431.5	44.283
2524.2	54.203
2356.6	63.285
2010.7	71.589
1593.8	77.666
1208.5	80.957
936.08	81.86
817.51	79.31
786.13	74.061
760.54	67.742
722.01	61.033
748.23	55.785
939.51	54.129
1270.4	55.543
1647.3	56.648
1977.9	57.009
2210.6	55.946
2328.5	51.624
2328.9	43.863
2249	34.482
2123.5	24.187
2001.7	16.279
1918.3	17.029
1889.9	24.021
1909.5	32.311
1939.2	37.483
1940.3	39.56
1872.8	39.013
1721.9	37.336
1485.6	35
1192.2	35.228
906.44	35.903
744.26	35.44
859.12	32.802
1167.7	31.401
1509.8	33.121
1779	40.853
1912.3	49.659
1873.4	58.241
1666.7	61.612
1324.6	62.073
942.69	57.28
674.31	51
674.78	46.228
814.45	47.297
905.65	51.478
884.5	55.543
791.2	55.606
802.43	51
1144	41.231
1786.9	30.15
2586	21.954
3416.4	24.839
4143.4	34.015
4638.9	40.224
4779.4	41.629
4510.5	37.014
3819.5	28.46
2802.7	18.028
1597.4	18.248
415.52	28.443
660.26	37.216
1320.7	40.706
1550.2	37.014
1335.3	26.249
767.27	10.77
289.15	15.133
995.2	35.128
1705.1	52.355
2150	64.9
2248.4	71.176
2002.9	68.425
1491.2	60.033
867.61	47.518
482.19	34.409
756.49	26.926
1092.1	28.284
1260.4	31.241
1262.1	33.541
1175.2	31.305
1081.7	26.833
1015.7	20.881
935.86	16.492
805.84	17.804
665.6	24.515
674.9	31.241
913.17	38.053
1225	42.19
1491.6	44.385
1643.9	45.354
1661	45
1546.4	44.045
1334.7	43.186
1067	40.608
785.91	37.121
534.87	31.305
336.82	23.537
210.23	15
208.2	9.8489
344.78	9.0554
542.09	13.601
737.02	17.117
883.25	20.396
927.31	23.324
843.22	26.401
632.68	27.893
319.85	26.683
70.093	23.345
413.76	19
697.06	16.125
865.44	21.095
892	28.862
794.12	36.056
628.25	40.361
487.48	41.761
463.52	40.05
523.45	36.401
556.06	32.45
520.22	30.414
419.08	28.653
295.3	25.71
190.7	20.025
131.24	13.601
80.231	7
63.891	9.8995
181.03	18.028
323.9	24.187
439.01	28.231
489.56	29.411
461.75	27.019
359.61	24.083
208	20.025
82.298	15.556
152.76	12.166
236.61	9.4868
255.84	9.434
219.24	12.53
169.94	15.524
185.54	17.088
247.4	16.279
280.93	14.765
261.49	14.765
187.22	19.698
120.42	27.074
175.19	34.54
279.72	39.205
350.75	39.115
362.19	34.409
326.46	27.295
265.63	21.633
234.08	24.207
277.46	33.136
363.85	41.869
446.03	47.011
509.66	48.836
554.75	45.177
570.31	39.051
553.83	33
509.56	29.411
433.66	28.792
4020.1	17.029
3679.8	15.524
3087.8	15.232
2392.4	17.088
1899.3	18.601
1888.4	20.881
2214	27
2498.4	37.643
2554.3	52.402
2341.2	68.949
1921.5	83.744
1394.9	94.763
907.32	100.02
551.59	97.576
341.67	89.471
190.25	77.13
264.17	65
600.6	57.245
975.72	53.852
1312.7	53.852
1573.2	52.479
1783.1	48.042
1992.1	43.324
2243.3	40.224
2517.1	39.699
2734.2	40.311
2836.8	38.013
2780.2	30.463
2595.8	19.105
2348.6	7.6158
2131.4	16.553
1992	30.15
1893.5	40.719
1764.8	46.872
1551.5	46
1256.3	41.881
940.23	33.106
677.55	23
504.51	17.029
409.93	20.025
500.95	30.083
866.75	40.224
1373	50.16
1873.4	56.586
2236.9	62
2369.3	65.765
2209.5	69.029
1780.4	72.139
1198.3	73
803.78	71.589
1044.5	65.765
1458.6	57.306
1634.1	45.695
1458.1	33.956
1014.5	22.804
995.16	17.029
1905.2	15.556
3071.3	19.235
4130.1	26
4879.1	34.205
5190.4	39.205
5019.6	41.146
4401.8	37.216
3457.1	27.166
2351	12.806
1318.9	8.0623
773.74	21.84
980.94	32.696
1221.7	38.079
1218.2	35.228
1031.3	25.612
890.01	16.125
1035.9	21.095
1351.2	36.222
1600.1	50.249
1676.1	59.034
1561.9	62.129
1290.5	60.539
941.54	54.378
602.1	47.265
355.14	39.56
277.69	31.401
365.85	26.019
558.51	22.804
810.8	24.739
1066	28.653
1268.7	32.558
1370	33.422
1345.4	31
1225.8	28.284
1058.9	26.019
926.15	26.907
895.9	29.017
950.03	33.615
1026.9	37.736
1089.9	42.426
1139.2	46.84
1185.9	50.249
1214.2	50.922
1203.4	47.074
1131.5	40.311
986.69	32.062
782.86	23.345
587.01	19.647
502.41	19.313
579.78	19.698
710.65	17.205
797.62	12.649
813.88	11.662
741.39	16.125
598.25	22.204
406.96	26.926
196.06	28.653
134.66	28.636
318.45	28.653
496.83	30.364
624.04	32.249
689.31	33.136
686.41	32.45
622.54	29.411
519.32	26.926
393.22	26.683
289.69	30.067
255.84	32.757
299.39	32.45
375.41	29.411
446.56	22.804
491.29	15
500.03	8.0623
467.98	7.8102
392.76	11.662
296.5	15
198.98	18.385
122.44	22.204
86.331	26.571
68.264	30
37.483	30.871
70.007	27.803
147.73	21.213
219.86	12.207
266.96	6.4031
276.42	13.038
262.71	20.881
244.03	25
252.74	25.495
278.21	21.024
292.06	15.524
283.3	13.416
255.98	18.868
254.62	26.926
299.3	32.558
357.21	35.468
395.85	34.482
384.22	31.385
319.08	27.857
219.78	26.077
106.23	29.069
25.612	33.941
36.77	40.112
39.446	43.829
108.56	45.222
256.36	44.011
430.54	42.059
589.87	38.328
696.57	35.355
734.17	33.526
3761.4	18.248
3234.2	17.493
2636.2	20.125
2110	25.71
1777.5	31.385
1682.3	34.059
1752.7	35.114
1883.7	36.497
1987.1	44.045
2025.4	59.034
1944	76.551
1740	91.417
1404.7	101
971.11	103.46
502.81	98.793
130.73	88.888
375.02	78.549
658.98	68.659
886.71	61.855
1119	54.231
1402.9	46.4
1720.3	36.359
2011.9	29.967
2232.3	32.202
2361.3	41.231
2441.4	46.39
2540.2	45.486
2689.2	37.59
2857.9	22
2965.6	2.2361
2925.3	18.601
2687.3	36.222
2262.1	47.927
1704.2	53.263
1114.5	50.448
601.08	41.593
264.05	29.967
115.88	21.932
171.57	22.136
525.14	29.069
1016.1	35.468
1537.2	40.608
1976	44.283
2241	48.754
2281.5	54.342
2099.7	61.074
1762.8	69.181
1408	74.431
1219.2	76.485
1258.7	73.824
1367.3	67.209
1354.5	57.871
1160.2	47.011
836.05	37
717.59	28.636
1203.6	22.361
1964.1	18.028
2763.9	17.117
3492.3	22.561
4062.2	31.064
4412	38.471
4485.1	42.19
4259.2	39.623
3749	33.061
2999.5	25.807
2110.8	25
1232.1	31.401
726.47	39.446
998.01	42.45
1414.3	41.183
1649.3	36.77
1685.8	34.366
1590.4	38.288
1485.9	45.398
1447.6	50.249
1464.5	49.82
1453.7	44.643
1338.4	39.446
1099.8	39.051
789.19	43.417
511.61	50.289
491.56	54.129
674.21	53.038
857.95	46.098
978.9	39.623
1065.7	34.366
1157.4	34.886
1260.9	36.401
1348.5	36.235
1367.4	32.249
1300.4	24.698
1154.3	19.209
984.28	21.401
875.43	30.61
894.13	40.608
1008.3	48.332
1123.1	53.712
1189.9	55.579
1186.6	54.452
1120.3	48.508
1013.6	40.706
878.65	30.529
726.18	20.1
582	12
485.08	11.18
490.93	15.033
583.92	16.643
682.31	16.492
742.57	16.125
738.53	16.279
675.98	16.125
582.38	16.125
529.4	16.492
555.05	19.105
639.19	25.179
714.04	33.541
740.92	40.608
