2443.4	27.586
2240	25.298
2293	28.071
2495.9	36.235
2647.7	41.195
2597.1	41.11
2298.5	34.059
1799.8	24.187
1253.1	19.416
986.95	28.425
1229.5	41
1618.8	48.166
1867.8	48.374
1909.2	40.804
1741.7	29.017
1415.1	21.19
991.62	25.06
551.29	34.886
294.27	39.56
575.7	39.825
954.11	34.928
1249.8	29
1387.2	27.514
1312.3	29.614
1018	31.241
568.03	29.017
438.55	24.207
971.6	19.235
1498.6	21.587
1815.6	29.155
1839.1	33.242
1565.6	32.757
1133.6	26.077
965.85	14.866
1390.1	2.2361
1962.9	14
2351	24.698
2420.7	30.414
2154.8	30
1604.3	24.698
894.19	16.643
314.84	10.77
666.92	14
1090.3	18.111
1275.8	21.19
1206.5	21.095
918.53	19.849
483.17	19.799
268.03	20.248
829.49	19.925
1489.9	17
2120.4	12.369
2640.4	7
2956.7	10.817
3013.5	16.763
2829.9	21.213
2536.9	21.932
2401.4	20.1
2621.6	17.029
3045.5	13.342
3361.2	13.153
3346.3	15
2910.2	16.155
2080.6	17.117
1040.6	19.209
621.35	22.136
1493.1	24.698
2225.8	25.942
2552.1	25.495
2430.2	22.023
1930.1	19.416
1228	18.439
742.62	20.616
1010.6	24.042
1443.9	25.632
1646.7	26.077
1572	25.08
1286.5	23.601
924.38	22.472
648.3	22.561
524.66	21.213
422.14	20.616
206.65	20.881
151.2	21.26
527.75	23.195
857.06	23.324
1047.6	21.541
1046.7	18.439
858.81	16.401
545.66	17
286.56	20.1
390.75	21.932
575.02	21.024
611.45	17.804
473.57	12.649
195.88	10.05
138.01	13.153
446.61	18.385
647.86	21
694.97	19.849
572.64	16.125
323.8	9.2195
102.36	5
350.49	9.2195
587.66	14.142
710.36	17.029
714.03	17.029
638.44	15
565.54	10.05
558.59	5.831
584.5	5.3852
577.9	7.8102
490.24	10
333.36	10.63
137.32	11.045
48.795	10
184.3	8.2462
237.92	7.2801
211.09	7.0711
120.62	6.3246
15	7.2801
104.06	7.8102
165.11	8
173.37	8.4853
156.28	8.0623
174.64	5.831
233.02	5
269.68	5.3852
250.03	8.2462
163.69	10.817
60.902	11.705
174.27	11.705
319.99	9.434
414.88	5.3852
438.06	3.1623
412.8	5.3852
404.55	9.4868
479.42	13
602.22	13.892
696.53	12.166
718.94	10
659.67	6.7082
570.45	6.3246
545.21	8
635.54	10.63
766.73	12.042
852.56	11.402
843.67	10.198
727.83	9.4868
529.24	9.2195
269.68	9.2195
35.903	10.77
264.02	10.817
470.03	10.05
614.1	10
692.87	9.4868
700.51	9.2195
649.47	9.8995
553.74	9.0554
429.62	8.9443
309.59	8.6023
243.92	8
244.52	8.0623
259.62	8.9443
255.7	8.2462
225.09	7.8102
2146.2	36.359
1774.4	40.804
1437.8	42.485
1172.5	42.379
956.34	39.925
769.9	36.235
709.94	33.377
868.59	31.89
1094.6	33.242
1192.7	35.468
1044.8	38.013
722.5	38.897
802.44	38.013
1519.9	36.056
2308.2	31.305
2865.2	25.962
3014.1	22.672
2696	22.361
2007.4	24.597
1371.4	29.155
1621.7	32.202
2408.5	32.757
2997.6	31.241
3139	27.019
2828.9	21.26
2340.1	17.088
2212.3	19
2688.3	24.413
3305.8	30.414
3667.9	33.971
3675.2	33.061
3495.4	28.601
3486.6	20.224
3849	13.601
4376.5	14.213
4720	20.881
4682.4	25.554
4277.2	27.166
3694.1	24.083
3224.9	17.464
3034.6	8.544
2969.1	2
2785.8	8.9443
2434.9	14.142
2128.4	14.422
2124.9	11.402
2303.5	8.6023
2280.4	9.434
1840.6	14.213
1150.5	17.493
1449.2	18.028
2758.8	13.416
4018.6	6.7082
4786	3.1623
4809.2	12.649
4026.3	21.401
2542.4	26.077
758.28	27.785
1635.8	25.08
3378.6	18.682
4577.1	12.649
5028.2	9.8489
4724.4	14.866
3868.5	21
2869.3	24.083
2380.3	24.331
2647.3	23.324
3050.6	20.616
3097.1	17.205
2673.7	16
1892	16.401
995.14	17.464
530.5	17.889
886.09	19.313
1100.1	19.313
967.48	20.591
559.88	21.587
350.78	21.633
816.03	22.204
1234	22.023
1403.8	21
1300.5	20.809
964.38	21.19
515.46	23.087
141.35	24.698
341.59	25.495
512.82	24.207
533.63	22
512.89	20.809
590.86	21.541
753.1	23.537
861.26	24.413
850.4	24.187
696.8	21.26
467.61	18.028
325.09	16.553
448.36	17.804
615.62	20.025
688.84	22.672
646.07	22
517.39	18.385
381.01	13
356.43	8.544
465.29	10.296
605.16	14.765
737.47	17.088
839.11	17.72
885.89	15.62
861.1	11.045
746.38	5.831
551.38	2.2361
310.92	5.831
94.372	10
205.72	11.662
350.17	10.817
415.25	9.2195
404.33	6.3246
381.41	3.6056
393.41	0
448.02	3.1623
507.99	6.0828
542.38	8.0623
554.68	8.6023
549.92	9.0554
541	7.6158
520.59	4.4721
481.36	3.1623
436.86	6.7082
427.11	10.198
466.19	13.454
524.95	14.142
557.52	12.53
533.08	9.8489
456.97	6.4031
346.7	5.831
235.84	10.05
146.01	12.806
65.49	15
71.84	14.866
199.11	13.153
346.16	10.63
476.64	9.2195
569.69	9.2195
636.76	10.63
714.01	12
837.08	12.728
982.35	12
1089	9.8995
1103	9.0554
972.47	8.9443
711.77	8.9443
387.06	9.4868
334.28	9.434
647.5	8.2462
932.02	7.2111
1075	7
1036.4	7.0711
845.06	8.0623
548.18	7.8102
222.27	8.0623
163.6	7.0711
349.19	6.0828
427.54	6.7082
374.04	6.7082
221.58	8.2462
25.08	8.0623
3606.9	43.186
3494.2	50.04
3403.8	54.452
3194.2	54.009
2776.4	50.249
2132.5	45.011
1414.8	40.224
988.14	39.56
1192.6	42.379
1529.3	44.721
1623.2	44.944
1453	40.804
1289.3	33.838
1610.1	26.173
2331.9	18.439
3053.5	14.318
3530.1	13.038
3664.1	15.133
3474.4	18.601
3158.7	22.361
3016.7	27.074
3257.1	29.206
3726.2	29.833
4125.9	29.155
4286.7	28.284
4181.9	29.698
3964.3	33.242
3863.6	38.013
4049.8	40.447
4444	39.825
4835.4	36.222
5048.3	31.623
5051.7	27.203
4916.2	25.962
4772.3	25.807
4712	25.179
4703.8	22.804
4612.7	18.248
4316	12.207
3761	7
3021.8	5
2303.2	5.099
1957.5	5.831
2129.1	3
2467.7	1.4142
2598.2	5.831
2366	10.77
1751.2	13.342
931.58	14.142
1002.2	12.166
2124.8	8.9443
3245.7	5.099
4069.3	3.1623
4425.6	5.6569
4224	8.2462
3493.6	10.05
2393.2	12.53
1517.3	14.866
2041.3	16.492
3261.5	16.763
4286.2	15
4851.1	13.342
4889.5	12.649
4477.2	15.62
3819.5	21.024
3199.1	25.456
2836.2	28.16
2719	28.844
2603.4	26.926
2287.3	23.707
1745.1	21.378
1085.4	19.849
564.93	21.024
610.52	22.672
823.91	24.021
869.16	24.083
834.82	22.361
985.39	20.591
1323.9	18.974
1629	16.553
1738.2	16.763
1565.6	17.889
1134.5	18.385
614.1	19.313
602.2	20.125
1095.1	20.616
1491.7	21.095
1632.5	20.616
1522.7	21.471
1246.9	22.136
963.41	22.361
857.55	22.136
939.38	21.932
1002.5	21.541
954.9	20.881
836.24	21.095
760.51	21.378
797.12	20.809
870.01	21.213
876.16	20
770.42	18.248
635.69	16.279
601.3	15.033
707.05	14.422
806.39	15.524
787.54	15.652
616.9	15.524
330.61	14.422
140.12	12.166
427.65	9.434
682.11	7.2801
801.28	6.0828
770.76	7.0711
617.83	7
394.87	6.4031
219.6	6.3246
246.33	5.099
332.56	3.6056
355.49	3.6056
313.67	3.6056
243.59	4
189.79	4.2426
173.33	4.1231
139.17	5.831
64.514	6.7082
43.417	8.544
153.11	9.8489
227.37	10.44
244.7	11.18
204.41	11.705
131.24	12.083
116.28	11.402
184.46	11.662
226.45	11.18
219.53	10.63
204.71	11.045
273.86	11.314
405.19	11.045
524.24	11.402
576.89	11.18
554.8	10.296
511.49	9.4868
540.4	8.544
692.69	8.544
868.99	8.544
982.18	8.544
987.12	9.8489
867.36	9.8489
647.48	10.44
376.92	10.817
139.17	10.198
179.49	10
301.73	9.2195
370.64	9.434
425.18	9.4868
507.58	8.9443
614.34	8.544
695.13	8.0623
700.5	8.0623
625.26	6.4031
468.76	6
302.99	5.6569
241.09	6.0828
327.83	5.831
403.82	6.3246
414.69	6.7082
6341.6	53.413
6125.4	55.731
5635.9	56.303
5005.2	54.571
4374.7	51.108
3919.7	48.508
3692	46.141
3616.2	43.966
3575.5	40.719
3534.9	38.013
3554.9	34.525
3728.8	31.113
4065.4	27.659
4468.4	23.409
4835.5	21.401
5071.9	19.026
5155.9	18.358
5092.6	18.788
4923.4	19.105
4706.8	20.616
4459.7	22.472
4237.6	24.515
4045.5	26.173
3884.1	28.443
3709.7	31.305
3494.3	32.696
3220.8	35.114
2895.5	37.121
2560.8	38.601
2305.5	39.446
2196.8	39.294
2292.4	37.736
2609.9	34.713
3115.4	31.064
3719.7	25.962
4301.4	21.471
4735	17.464
4917.1	13.342
4820.1	10
4517.3	5
4177.3	1.4142
3997.8	5
4060.4	8.2462
4220.2	11.18
4239.2	12.369
3965.5	11.18
3413.1	8.544
2810.8	6.0828
2607.1	4.4721
3060.4	4.1231
3795.3	5
4384.6	7.2111
4613.2	10.198
4406.2	13.928
3825.7	18.358
3000.2	21.587
2161.4	24.698
1692.5	25.71
1923.7	24.698
2534	22.561
3168.9	19.416
3670.8	15.133
3976.9	12.042
4042.6	8.0623
3850.6	4.1231
3440.6	5.3852
2910	12.042
2393.9	18.439
2037	25.179
1874.7	30.806
1764.7	34.525
1548.1	37.202
1161	38.21
635.84	38.897
303.59	39.051
753.08	39.051
1222.3	38.328
1507.6	35
1589.4	29.428
1484.7	23.022
1253.6	15.297
995.15	8.544
808.2	2.2361
765.77	4.2426
825.24	9.8489
913.06	15.524
982.46	22.804
998.02	29.069
940.95	33.971
808.55	38.013
606.88	39.623
366.87	39.115
141.01	38.601
46.011	38.328
98.311	37.577
78.588	36.249
140.46	33.838
316.57	29.53
484.07	23.77
588.56	18.028
588.18	12.042
524	8.6023
534.77	4.4721
730.86	2
1009.9	3.1623
1235.2	7.2801
1312.1	13.038
1214.8	16.492
949.7	18.868
637.6	19.416
579.56	19.209
857.08	18.028
1161.8	18.868
1339.5	19.313
1357.3	19.925
1263.9	18.868
1153.3	16.279
1126	12.042
1178.3	8.544
1212.6	8.0623
1163.3	9.2195
1008.1	11.314
811.47	12.369
692.12	12.649
726.01	13.454
823.76	15.297
857.56	17.889
792.6	20.616
651.09	21.541
557.1	20.616
618.17	19.313
759.82	17
868.83	15.297
877.22	14.213
787.87	13.038
639.68	11.402
482.85	9.2195
367.31	6.0828
282.04	4.4721
191.38	4.4721
190.28	6.4031
402.61	8.0623
682.59	9.434
944.05	10.198
1127.9	12.806
1196.1	14.142
1140	15
971.66	15.297
744.83	15.264
509.27	14.56
376.56	12.53
366.31	11.402
378.43	10.296
318.51	8.544
189.69	7.6158
142.71	6.4031
314.08	5.099
509.43	5.099
643.41	5.3852
701.1	5.831
660.26	7
555.31	7.2111
420.74	8.0623
321.44	8.6023
317.62	9.2195
365.23	9.434
5825.3	50.912
5182.2	51.352
4371.5	50.606
3491.7	48.754
2659.1	47.518
2029.2	46.755
1706.1	44.643
1671.5	43.658
1766.5	42.438
1862.4	40.012
1931.5	38.419
2036.9	35.171
2306.5	30.676
2809.8	25.612
3478	20.396
4161.4	16.125
4717.8	14.56
5046	17.493
5130.9	21.633
5054	25.08
4965.6	27.785
4990	29.547
5141.7	29.833
5290.2	29.069
5288	28.284
5041.4	27.857
4576.9	28.425
4002.2	29.614
3466.6	32.573
3047	35.609
2716.2	39.013
2402.8	40
2153.1	39.812
2221.6	39.115
2720.8	36.878
3449	33.838
4123.7	29.155
4587	24.042
4797.9	19.416
4845.1	15.297
4871.7	14.318
4987.2	16.971
5157.7	21.587
5242.3	24.166
5101.8	24.597
4696.9	23.345
4154.3	21.213
3759	19.647
3801.5	18.439
4236.8	18.601
4733.7	19.235
4987.3	22
4843.4	26.077
4305.7	30.083
3477.6	33.526
2545.4	34.986
1742.4	35.693
1295.2	32.45
1295.3	28.284
1559	22.023
2028.4	15
2682.1	7.6158
3396.6	5
4003	10
4358.1	16.125
4376.6	22.136
4058.9	27.731
3523.8	31.623
2947.3	34.482
2505.3	34.713
2256.8	34.059
2076.4	31.016
1800.2	28.018
1418.6	25.08
1157	23.345
1349.7	23.431
1810.4	24.042
2188.2	25
2298	27.019
2098.2	27.019
1658.6	25
1107.3	21.587
760.52	16.553
900.41	10.77
1168.1	4.1231
1259.2	3
1126.5	10.296
812.75	17.72
417.48	25.06
128.86	32.28
335.26	38.949
475.51	43.681
465.34	47.413
376.85	49.041
393.03	47.885
572.69	46.573
758.54	42.72
858.09	39.459
848.04	34.828
756.72	29.017
687.48	23.431
746.06	16.492
909.46	11.045
1083.6	10.198
1186.6	13
1189.5	17.205
1088.4	21
911.01	23.431
709.33	25.495
580.83	26.42
639.9	27.514
819.09	28.231
1003.3	27.313
1136.3	25.298
1214.4	21.954
1244.3	19.235
1252.8	15.556
1247.5	13.342
1219.9	12.649
1165.9	12.042
1074.7	11.18
967.88	11.705
886.07	13.038
841.43	14.036
837.9	15.556
830.94	17.029
797	17.029
730.25	16.279
677.33	16.125
670.26	15.232
709.88	14.56
745.22	13.601
747.73	13
690.76	12.207
589.91	11.705
457.46	11.18
305.04	10.63
144.45	9.4868
47.074	8.2462
223	6.4031
411.1	5.831
588.24	5.099
724.08	6.0828
808.89	7.2111
838.19	9.8489
821.6	11.18
763.2	13.454
688.52	15.033
592.99	15.811
490.5	16.763
399.16	15.232
361.35	14.318
377.64	12.649
406.67	10.817
405.29	9.2195
343.08	6.4031
245.42	4.1231
220.23	2.2361
339.23	3.6056
493.01	6.3246
591.71	8.2462
616.72	10
562.92	10.05
461.55	11.314
386.03	11
394.77	10
5184.9	49.659
4547.6	41.304
3914	33.615
3331.5	29.698
2816	33.287
2382.7	40.792
2050	50.596
1846.2	57.009
1817.5	60.033
1951	60
2216.7	55.785
2561.5	47.424
2947.8	37.162
3337.3	24.352
3723.2	10.77
4083.3	5
4410.5	18.028
4685.9	29.833
4900.7	38.471
5030.8	43.463
5077	44.922
5053.6	42.202
4975.5	36.014
4873.4	26.627
4761.9	15.264
4648.8	10
4504.9	17.493
4300.7	29.155
3993.2	39.115
3557.7	48.104
3010.4	54.452
2415.9	57.689
1928.3	57.723
1835	54.12
2244	48.703
2924.1	40.249
3667.4	31.78
4343.9	24.759
4894.3	20.248
5266.9	20.1
5432.6	22.204
5398.3	24.352
5171.8	24.698
4820.3	24.597
4429	22.561
4111.9	20
3976.9	17.029
4050.4	13.601
4249.6	12.083
4466.4	13
4597.9	14.422
4573.2	16.492
4364.6	18.601
3998.6	20
3509.8	20.248
2982.2	20.125
2475.5	20
2043.6	19.723
1717.5	19.235
1544.1	19.026
1631.1	17.804
2037.3	14.56
2653.2	10.44
3339.8	5.6569
3949	2.2361
4353.7	8.9443
4477	17.117
4299	25.495
3838.2	32.558
3167.8	38.013
2432.5	41.146
1804.2	41.773
1520.4	41.11
1619	37.121
1844.4	32.757
1997.2	27.313
2021	21.095
1919.5	16.553
1745.3	14.213
1533.6	16.401
1308.3	18.682
1096.1	20.616
902.59	20.518
734.32	18.439
594.66	13.928
478.2	8.4853
387.99	4.4721
311.76	10.05
270.12	18.358
292.72	26
356.04	34.482
409.76	41.34
444.78	46.53
440.69	51.088
421.43	53
378.81	52.402
336.47	50.359
297.95	45.804
294.84	39.459
393.65	32.802
569.89	26.077
785.12	20.616
988.35	16.155
1148.5	15
1237.3	16.553
1248.8	19.416
1186.4	23.087
1093.8	26.907
999.24	29.069
960.25	30.61
991.58	30.414
1073	29.682
1162.4	27.893
1235	24.187
1278	21.84
1291.9	19.723
1272.3	16.279
1226.8	14.213
1149.6	12
1044.9	10.817
928.7	10.77
804.56	11.18
706.56	12.207
651.89	14.318
644.44	14.318
663.47	14.765
674.01	14.036
650.13	13.601
603.79	13.416
558.82	13.038
534.63	13.601
564.13	14.318
619.95	14.142
653.38	14.866
635.99	14.56
560.24	13.601
421.86	12.042
248.02	9.2195
133.79	7.2801
257.42	4.4721
435	4
580.78	6.0828
683.08	8.0623
742.85	10.296
763.39	12.166
753.42	13.454
727.28	14.142
693.8	15.232
646.56	15.264
601.08	15
554.76	13.892
505.97	12.53
436.42	12
343.56	10.296
224.36	7.2111
109.14	6.0828
139.09	4.1231
276.88	3.1623
401.05	3.1623
494.07	3.6056
532.51	5.831
530.22	7.0711
488.67	8.9443
422.47	10.296
354.75	11
296.39	10.817
4813.4	51.971
4587.4	46.098
4350.6	39.85
4013.7	34.67
3584.5	32.558
3099.3	36.401
2648	44.272
2337.6	52.24
2191.5	58.249
2187.7	60.926
2235	59.034
2309.9	53.759
2428.4	43.29
2658.5	30.232
3015.7	16
3494.4	9.8489
4048	21.378
4603.8	34.132
5102.4	44.407
5486.4	50.21
5707	50.488
5759	45.177
5646.1	35.355
5394	23
5037.3	9.0554
4623.8	11.662
4183.4	24.839
3739.4	37.656
3312.8	45.695
2923	51.313
2614.4	54.009
2408.7	52.431
2340.6	49.396
2414.3	44.911
2646.8	39.598
3016.7	34.525
3508.1	28.178
4059.5	22.472
4583.2	18.868
4998.7	17.029
5253.3	19.235
5312.4	23.77
5201.3	27.857
4986.6	30.463
4755.4	30.463
4590.1	29.155
4533.4	25.298
4550.6	22.204
4567.7	21.213
4523.3	23.259
4385.1	25.495
4158.2	27.203
3861.3	26.401
3536.1	23.707
3207.5	18.111
2904.6	12.53
2626	8.9443
2371.6	12.083
2144.7	17.692
1982.7	22.561
1923.5	25.08
2069.4	25.06
2434.2	20.396
2955.8	13.892
3511.3	6.4031
3968.4	11.402
4258.1	22.204
4290.4	32.558
4047	40.706
3554.4	46.519
2882.8	47.854
2187.7	45.255
1710.3	40.792
1670.3	33.838
1935.7	25.456
2186.7	19.235
2272.9	17.088
2166.9	18.248
1882.2	20.224
1500.5	22.472
1101	22.825
764.39	21.024
561.17	17.464
472	13.454
448.76	9.2195
458.98	7.2111
497.12	10.296
544.06	14.213
565.13	19.723
526.55	25.179
434.84	31.016
313.31	37.014
256.73	43.29
308.04	46.957
391.25	51
430.77	51.624
428.14	51.624
427.38	48.26
484.13	44.102
603.08	36.401
749.06	29.069
874.42	21.587
967.15	16.279
1025.7	15.232
1058.3	18.111
1060.7	21.26
1044	24.187
1005.5	26.077
965.8	26.571
951.62	26.926
1017.9	27.019
1140	27.074
1286.4	26.926
1411.1	26
1485.1	24.739
1479.4	23.022
1395.3	20.1
1253.5	17.205
1085.4	14.56
913.51	13.601
763.89	13.601
654.29	15.133
584.2	15.811
551.8	14.56
556.22	12.369
562.23	10.63
577.68	9.434
595.95	9.8489
629.32	12.042
677.45	15.232
744.24	17.493
807.52	19
831.69	18.601
798.86	17.088
695.29	15.297
525.52	11.402
306.14	7.2111
84.629	5
176.34	5.6569
357.1	8.0623
472.97	8.2462
530.18	8.0623
538.08	7.6158
536.81	7.2111
576.07	7.8102
665.88	10.817
766.23	14.142
838.15	16.553
858.37	18.028
814.8	19.026
709.46	17.804
559.46	15.811
385	12.369
203.66	9.2195
39.699	5
112.51	3.6056
228.33	5.3852
307.23	7.0711
356.67	7.6158
387.64	7
403.97	6.3246
415.59	5.3852
421.36	5.831
415.5	7.8102
398.32	9.2195
368.91	10.44
4066.1	37.014
4173	39.446
4453.9	44.643
4594.3	47.17
4446.3	46.519
4022.8	41.773
3451.6	37.014
2935	38.588
2632.2	46.487
2503.1	55.036
2382.7	60.033
2142.3	60.415
1898.1	53.339
2000.1	40.311
2651.2	25.318
3604.4	18.028
4568.9	28.284
5367	42.521
5898.4	51.788
6140.7	55.462
6107.3	52.479
5844.4	44
5430.6	30.414
4926.9	17.029
4421	9.0554
4000.1	17.464
3746.8	27
3682.4	33.838
3710.1	39.825
3679.9	45.277
3460.3	50.359
2982.8	55.027
2314.3	55.902
1729.6	53.935
1823.3	49.244
2637.9	41.183
3610.1	32.016
4446.6	23.707
5016.9	18.358
5281.5	16.031
5283.3	14.866
5098.2	14.318
4823.9	12.166
4564.7	13.416
4392.4	16.971
4321.1	20.616
4357.3	24.597
4460.4	26.249
4586.9	27.459
4686.3	31.016
4691.7	35.609
4550	40.792
4250	44.418
3784.9	44.147
3233.2	39.962
2706.4	30.083
2367.8	17.72
2315.5	12
2454.2	23.087
2609.3	36.069
2651.8	45
2575.3	48.083
2479.9	44.011
2525.9	36.62
2812	29.682
3280.7	34.482
3737.6	45.354
4044.3	56.859
4106.8	64.537
3906.1	63.953
3482.1	57.271
2941.8	42.755
2448	25.495
2157.1	8.6023
2101.6	16.492
2151.2	30.414
2138.8	38.21
1986.3	40.792
1695.7	35.777
1327.6	26.401
967.84	12.649
726.14	3.1623
653.66	16.492
669.49	25.942
677.19	29.547
657.06	27.203
625.63	18.358
594.39	6.4031
546.71	15
452.09	31.401
303.53	46.043
148.38	57.489
225.57	62.586
430.63	62.769
603.79	56.859
709.64	48.042
734.77	37.577
693.19	30.414
602.99	26.833
517.05	26.077
474.86	26.401
518.35	26.401
637.1	24.698
791.65	23.537
957.2	25.495
1108.4	31.048
1225.7	35.777
1296.4	40.162
1309.7	41.183
1278.3	38.639
1221.7	33.242
1162.2	25.495
1113.7	16.279
1094.7	12.369
1107.1	14.56
1136.2	19.105
1168.2	21.213
1187.6	22.804
1180.5	24
1137.2	25
1055.3	26.926
932.46	29.547
789.58	28.636
637.82	26.249
513.94	21.471
445.93	14.318
456.21	6.7082
528.16	8.2462
618.13	17.464
704.6	25.239
772.42	30.806
792.19	33.121
764.04	31.016
689.45	25.08
566.01	16.155
412.04	7.8102
245.9	7.0711
134.03	14.422
202.89	19.416
327.94	20.809
429.76	18.111
492.31	12.207
520.05	5.6569
522	9.8489
518.27	17.493
537.43	23.77
588.71	26.401
663.51	25.942
734.19	22.361
781.42	16.279
775.57	9.4868
709.77	3.6056
580.32	6.3246
398.65	10.63
175.45	13.153
51.088	12.53
261.28	9.8489
427.62	5.3852
535.35	2.8284
573.84	6.4031
546.06	11.18
476.73	12.728
390.66	13.153
317.03	11.705
270.19	8.4853
253.8	5.6569
4177.7	32.573
4402.3	51.313
4622.9	62.769
4620.5	63.127
4334.8	51.624
3838.2	32.802
3254.8	19.647
2756.8	34.525
2487	55.444
2466	70.456
2516.4	75.584
2469.6	70.349
2257.6	56.08
2044.3	37.656
2260	20.518
3090.6	19.105
4230.6	29.833
5339.8	38.21
6203.9	42.059
6699.2	43.046
6778.5	42.72
6444.9	41.231
5772.8	36.359
4872.3	27.459
3926.2	15.133
3251	5.099
3182.3	22.023
3639.6	38.275
4146.9	50.21
4338.1	56.921
4018.5	56.321
3150.9	51.884
1873.8	45.255
899.04	40.817
1929	40.522
3297.3	40.311
4320.4	37.643
4839.9	34.525
4909.6	31.145
4718.1	31.257
4548.4	34.482
4613.2	36.401
4874.2	32.757
5151.4	25.495
5265.2	14.422
5166.2	3.1623
4902	11.18
4541.1	20.396
4181.5	26.173
3900.8	31.575
3771.1	40.497
3826.2	52.154
4009.6	63.789
4139.1	70.803
4053.3	70.711
3637.3	62.482
2925.4	50.359
2152	43.174
1851.6	51.108
2299.9	66.648
2922.6	78.854
3272	84.054
3214.5	80.399
2842.3	73
2485.6	68.007
2591.6	73.824
3169.7	84.9
3820.5	93.343
4230.4	93.606
4282.2	82.055
4002.5	60.828
3517.3	33.377
3007.9	17.493
2616.8	37.59
2357.6	57.271
2140.8	68.096
1854	67.357
1491.9	55.462
1153.2	37.855
970	23.259
995.04	29.069
1073.9	42.72
1070.9	50.804
960.03	49.649
763.45	40.447
541.44	29.206
357.33	24.759
261.28	34.54
252.1	44.598
267.12	48.703
259.79	45.607
209.58	36.139
161.4	26.306
256.32	30.364
461.64	44.181
685.82	57.585
869.06	64.815
950.96	65.123
909.45	58.523
743.11	45.88
493.21	31.765
334.35	20.224
541.27	13.892
864.88	10.817
1154.1	7.2801
1357	3.6056
1454.7	13
1457	25.239
1381.1	36.056
1252	44.688
1095.4	46.872
957.04	45.177
904.2	38.079
976.45	27.514
1141.9	14.765
1312.5	2.8284
1427.2	8.4853
1443.3	17.117
1349.7	22.472
1156.1	27.514
899.41	31.623
641.37	36.056
467.05	39.205
443.94	38.949
513.42	36
604.33	28.425
696.43	20.616
786.8	17.72
871.67	25.08
903.04	35.511
871.73	43.174
768.19	44.654
602.74	41.437
440.46	32.202
337.21	20.881
334.99	14.142
327.02	18.028
257.86	25.554
183.44	27.893
276.76	26.077
466.26	19.647
626.12	12.166
696.46	12.042
660.37	18.868
532.66	24.515
405.43	25.495
452.24	22.361
640.05	15.524
817.98	9.4868
901.28	10.198
874.95	15
747.02	17.889
555.47	18.358
334.77	14.036
135.34	7.8102
88.057	2.2361
215	7.2801
343.46	11.662
460.9	11.705
550.19	9.4868
590.47	4.4721
571.08	2.8284
489.12	9.2195
374.44	15
285.41	18.028
280.24	18.439
2962.5	19.416
4792	38.639
6002.3	52.355
6298.9	57.009
5684.5	50.961
4396.3	37.054
2903.3	18.028
2014.8	18.601
2359	38.013
3019.5	55.758
3399.5	65.376
3452.8	67.231
3259.3	61.855
2793	52.086
1895.2	41.231
441.71	38.601
1626.7	43.658
4035.9	49.396
6429.8	51.039
8362.5	47.096
9404.6	36.249
9277.5	21.213
7929	8.0623
5575.6	12.649
2879.4	19.105
2301.1	18.974
4428.3	9.2195
6124.9	6.0828
6693.4	27.203
6016.4	47.424
4307.3	63.561
2010.9	72.422
1060.2	71.589
2924	61.188
4233.8	43.966
4567.6	23.601
3949.6	12.042
2750	23.345
2117.1	34.176
3247	40.311
4837.5	42.059
6011	43.324
6493.4	46.615
6239.8	50.04
5371.6	50.931
4207.3	47.265
3348.8	38.588
3502.5	26.926
4442	22.825
5394.7	32.894
5894.3	49.82
5758.2	67.268
4948.9	81.006
3629.4	90.028
2150.7	92.914
1468.5	91.924
2180.7	89.554
2884.8	87.966
3001	93.606
2470.4	102.62
1524.6	111.62
1144.5	116.76
2078.9	117.28
3041.6	114.87
3528.1	114.28
3451.5	115.66
2980.4	117.34
2608.1	115.87
2866.9	105.69
3593.3	86.925
4233.3	62.177
4488.3	41.304
4300.5	43.012
3801.5	59.059
3218.9	71.784
2754.8	74.431
2408.1	65.924
1995	49.204
1366.5	29.411
510.57	21.587
478.01	31.145
1365.3	39.699
1980.5	40.792
2203.4	34.928
1985.7	25.06
1399.9	13
596.05	10.77
241.81	17.263
886.33	22.136
1225.4	25.239
1197.8	26.907
833.24	30.48
340.79	37.443
613.59	44.385
1172.5	51.478
1547.6	57.706
1645.9	59.54
1468.8	58.258
1101.1	51.923
676.24	41.437
452.08	27.459
587.8	15.264
820.75	5
1048.1	1.4142
1292.9	3.6056
1526.1	8.0623
1677.1	17.692
1677.7	30.463
1504.7	41.049
1216.5	47.508
989.83	48.021
1058.1	42.107
1339.4	31.385
1597.9	17.692
1707.8	7.6158
1623.1	12.369
1384.1	19.235
1067.3	21.932
735.13	22.023
479.88	23.022
377.07	26.926
427.41	30.529
559.58	32.14
704.57	30.61
838.47	23.77
907.56	15.033
920.96	4.1231
872.07	7.2801
814.95	16
784.69	23.409
764.69	29.069
725.28	32.202
630.57	32.016
480.84	28.178
303.78	21.471
176.82	12.53
213.43	11.662
290.3	20.025
343	27.586
391.77	31.064
463.88	27.803
559.13	21.024
634.4	17.72
648.64	23.601
589.84	32.28
480.88	38.275
394.99	38.118
429.42	30.48
549.17	18.111
654	5.3852
692.12	13.416
646.52	23.087
532.37	28.792
380.79	27.295
259.76	21.19
254.26	15.033
329.96	15.297
404.95	20.518
430.03	24.083
418.23	22.023
376.38	16.279
339.67	11
305.51	16.031
294.29	23.431
303.21	28.071
315.45	29
987.02	12.083
2119.8	20.248
3384.2	24.515
4419.4	25.495
5026.5	23.409
5074.9	19.105
4500.2	12.806
3366.2	6.3246
1986	10.817
1730.4	23.537
3147.5	37.696
4582.4	52.431
5370.8	64.031
5211.2	71.868
3994	74.324
1835.2	70.406
1389.1	61.62
4483.7	48.094
7426	33.422
9591.9	20
10562	11.402
10109	10.77
8260.2	10.63
5320.2	8.2462
1878.9	8.9443
2157.8	16.125
5041.2	26.401
6931.1	35.014
7487.8	39.446
6734.8	41.34
5029.4	39.459
3180.3	38.471
2791.6	38.013
3819.3	39.598
4490.5	39
4114.6	37.054
2669.9	30.017
569.58	20
2248.8	10.63
4580.8	14.56
6217.9	26.627
6845.2	37.336
6409.3	46.819
5220.2	51.884
4047.2	54.708
4018.7	53.712
5057.3	49.193
6031	43.29
6334.1	38.588
5867.3	42.521
4866.8	56.045
3804.5	73.055
3234.7	90.736
3194.5	104.56
3135.5	114.63
2649.1	120.2
1715.6	122.35
749.38	121.93
1180.5	123.82
2002.1	126.29
2325.7	129.34
2026.5	134.3
1215.6	136.95
768.19	137.2
1813.4	133.36
2895	124.62
3537.2	111
3612.1	93.493
3183.8	74.216
2586.9	55.227
2479.1	39.319
3087.3	30.61
3873.1	27.857
4394.3	29.732
4472.3	32.894
4104.9	35.805
3424.7	38.013
2638.8	39.115
1979.4	38.275
1673.5	36.401
1764.8	33.242
2050.7	30.529
2342.1	31
2527.6	35.511
2532.7	41.11
2327.3	45.618
1955.4	46.84
1552.4	44.102
1367.2	36.125
1487.5	24.083
1693.4	8.544
1775.2	9.2195
1694.6	26.926
1571.1	40.792
1553.5	50.931
1724.8	53.852
1925.3	51.662
1973.7	44.598
1770.9	34.886
1338.8	26.926
796	24.515
595.13	26.019
1046.5	29.12
1531.7	29.069
1838.2	26
1909.2	22
1762.4	18.028
1483.7	17.205
1161.2	19.209
947.64	24.739
937.4	29.12
1090	32.65
1258.3	33.136
1386.3	29.53
1437.7	21.471
1405.3	9.0554
1290.5	5
1095.2	19.416
853.5	33.242
630.04	41.617
522.69	45.011
619.77	43.267
790.4	36.056
923.05	25.632
961.9	14.56
890.64	10.77
736.14	14.142
536.03	17
419.22	17.493
496.7	15
658	14.318
783.56	15.811
825.48	19.026
782	21.633
661.28	23.087
483.7	23.707
278.65	24.331
57.315	25.495
168.62	28.071
383.51	29.411
553.17	30.364
653.58	31.953
669.51	34.132
577.76	36.346
398.18	37.643
187.77	38.118
241.6	35.468
452.12	30.067
614.04	22.672
666.12	17.464
606.67	17.117
456.48	21.541
285.87	26.42
247.78	27.893
372.37	27.295
495.26	23.77
562.52	20
584.62	17.117
567.72	16.155
527.19	17.804
443.1	19.026
342.99	20
230.65	19.416
195.44	19.235
323.01	18.974
454.01	17.464
2915.2	18.111
4743.7	25.612
5719.7	31
5718.7	31.064
4931.4	26.833
3861.5	19.026
3260.8	10
3456.5	5
3765.4	11.18
3655.8	20.809
3164.4	32.45
2850.8	46.872
3159.2	59.908
3620.1	70.838
3522	75.611
2563	74.148
1278.6	64.444
2759.6	50.695
5458.5	34.928
7866.8	20.248
9421.2	11.402
9788	10.63
8969.2	10.198
7331.7	8.0623
5726.3	9.2195
5357.2	16.971
6340.9	24.187
7522.5	30.676
8183.7	33.302
8213.8	36.359
7802.9	38.601
7185.7	42.012
6456.9	43.966
5488.3	43.6
4200.2	39.962
2895.8	32.757
2754.3	22
4010	15.133
5295.2	17.493
5861.8	26.401
5431	35.057
4074.1	39.925
2166.6	42.638
1377.5	42.426
2962.1	40.719
4295	37.59
4763	32.985
4300.5	29.069
3186.7	26.926
2166.4	30.15
2442.3	41.146
3434.3	57.697
4049.5	76.217
3971.8	95.341
3214.9	111.09
2007.5	123.65
665.88	131.06
522.16	135.36
1253.6	137.75
1478.7	140.39
1240.9	145.84
727.98	152.51
292.61	156.87
426.99	156.39
535.11	148.03
588.63	132.67
979.02	111.4
1598.4	86.052
2145.1	59.464
2440.2	37.216
2483.8	20
2549.3	11
2986.3	8.6023
3763.6	12.806
4499	22.561
4838.3	35.114
4572.3	46.325
3688.9	54.231
2324	57.28
974.6	56.009
1454.7	51.624
2622.3	47.518
3323.9	46.519
3403.6	50.09
2913.9	52.498
2043.3	52.393
1192.3	47.011
1098.5	36.125
1581.1	21.633
1892.9	5.831
1846.4	11.402
1482.9	23.854
962.91	31.575
669.49	35.693
970.58	36.715
1438.7	36.77
1819.5	38.588
2022.6	39.294
1977.9	40.05
1645.1	37.696
1070.3	33.302
527.6	27.203
1023.6	21.095
1850.6	20.248
2477.6	23.707
2743.5	27.893
2563.1	30.067
1962.5	30.463
1081	29
368.76	27.785
1073	26.683
1773.9	26.173
2106.4	25.06
2043.6	21.633
1641.6	16.031
1057.8	7.2111
653.15	4.4721
818.6	15.524
1115.6	26.571
1192.2	35.805
1010.6	40.012
644.99	41.34
227.2	37.696
374.64	30.083
724.61	21.633
931.69	13.928
973.86	10
866.61	10.817
634.02	11.045
308.3	9.8489
100.9	9.4868
481.3	14.56
840.96	20.809
1093.1	26.833
1184.2	30.067
1071.8	30
776.7	28.16
359.81	23.707
305.48	20.396
720.6	20.518
1039.4	24.083
1153.6	29
1054.3	33.242
774.75	35.355
456.6	35.777
432.1	33.541
677.61	29.833
853.12	25.08
840.76	22.204
649.22	20.616
327.39	22.561
103.47	24.839
428.19	27.019
683.39	29
803.64	29
789.64	28.32
660.72	27.166
479.59	25.239
281.3	24.042
126.85	22.472
92.228	22.472
168	23.195
216.32	24.083
227.71	23.022
196	22.023
176.64	19.235
1702.1	34.713
3066.6	27.586
4376.9	23.345
5031.7	20.125
4814.2	15.652
3721.8	11.18
2035.6	5.3852
685.88	4.2426
1957.2	16.125
3056.2	29.275
3319.1	44.553
2708.2	57.706
1452.5	67.082
466.81	71.197
1560.8	69.116
2182	61.855
1828	49.649
618.71	37.121
2134.3	27.166
4952.3	23.537
7728.6	24.166
9882.9	24.042
10950	19.647
10730	12.369
9387.9	1
7603.2	13.038
6695.2	27.203
7572.6	39.217
9258.8	47.802
10452	51.088
10526	47.381
9324.2	38.079
7094.2	24.083
4359.5	12.042
2289.2	17
3037.7	29.12
4612.7	36.125
5471	35.44
5394.9	25.962
4517.7	8.6023
3140.4	13.601
1708	36.056
1130.3	55.218
1799	69.029
2410.6	72.945
2632.8	68.949
2514.1	57.009
2179.4	42.059
1792.5	35.384
1562.9	43.081
1637	57.009
1962.5	69.376
2348.6	78.568
2606.3	86.122
2634.7	91.761
2378.3	96.26
1838.6	102.11
1088.1	109.66
297.66	119.04
669.72	132.26
1313.1	148.12
1694.2	163.17
1745.9	174
1488.5	178.07
1099.1	171.01
1028.3	153.84
1473.4	129.08
1989.4	98.387
2279.9	68.308
2215.7	41.785
1804.4	24.042
1344.4	15.811
1565.3	12.207
2475.8	16.279
3443.6	29.547
4141.8	46.325
4391.8	61.911
4166.3	72.801
3541.1	77.369
2756.9	75.895
2248.7	72.945
2354.1	68.659
2764.5	66.4
3038.2	63.388
2954.5	58.009
2499.4	48.508
1763	33.615
934.11	15.264
237.19	3.1623
406.45	17.205
595.63	26.401
486.21	27.019
432.61	20.248
923.73	12.042
1556	21.024
2077	36.878
2356.4	50.01
2364.3	55.606
2183.3	53.226
2048.4	43
2175.3	26.249
2547.5	11.045
2908.6	19.849
3049.1	34.409
2870.9	41.976
2363.7	41.773
1621.4	34.132
845.73	22.804
635.17	17.72
1096.7	27.166
1435.7	37.696
1460.5	42.45
1173.1	41.231
659.49	32.573
216.02	19.723
666.48	10.817
1110.6	20
1311.8	32.14
1244.8	40.46
919.13	42.72
433.78	40.608
137.06	34.205
627.28	26
970.28	17.117
1103.2	10
1019.4	5.3852
755.63	4.1231
413.86	6.4031
287.37	9.4868
541.33	14.036
786.05	17.889
920.61	21.26
941.05	22.472
876.5	23
754.99	21.541
594.81	20.518
407.73	19.313
264.89	17.117
330.48	16.971
527.55	18
690.71	21.932
749.49	27.295
689.26	34
515.46	38.471
261.6	42.19
84.929	41.11
302.01	38.833
464.51	34.482
522.23	28.862
478.82	26.249
401.91	27.074
388.82	29.206
474.09	31.145
572.27	31.113
610.39	28.16
580.9	23.854
501.77	19.647
433.88	16.125
410.53	13.601
423	13.416
383.29	13.416
277.35	15.033
125.72	16.643
165.33	18.385
356.2	19.416
506.08	20.616
3580.5	57.454
3262.2	48.703
2638.5	42.953
2200.6	41.725
2558.4	41.593
3380.3	38.079
3984.7	28.792
4017	16
3370.7	17
2197	36.222
1181.7	57.801
1916.9	75.107
3095.3	85.796
3705.3	87.321
3454	79.48
2286	63.6
410.82	41.593
2122.7	21.095
4641.6	20.518
6861.9	34.409
8461.6	42.579
9273.4	41.785
9332.2	31.064
8911.2	14.56
8429	10.77
8314.2	28.844
8636.6	44.011
9110.9	52.773
9350.5	52.01
9105.4	45.177
8317.1	34.366
7077.5	23.022
5625.7	19.235
4337.9	19.647
3683.2	20.224
3831.8	19
4309	17.029
4593.3	16.125
4440.2	14.56
3790.2	9.4868
2735.3	5.6569
1490.4	18.868
728.43	35.805
1404.5	52.345
2059.8	64.405
2240.1	71.12
1908.2	69.857
1166.8	66.37
254.58	63.906
847.09	66.098
1604	73.573
1982.1	79.699
1974.4	81.597
1661.1	78.746
1342.2	73.376
1340.7	73.007
1546.9	82.861
1574.7	101.41
1267.6	124.31
653	147.22
515	168.24
1302.8	183.22
1943.6	191.7
2174.2	191.67
1895.4	181.3
1130.3	160.91
176.71	131.38
1189.2	97.082
2181.6	60.638
2735.2	25.632
2672.9	5.099
1981.4	25.298
860.19	38.833
1156	44.283
2696.2	44.045
4050.9	44.283
4925.1	44.822
5179.1	46.043
4869.6	49.204
4212.3	52
3582.6	56.143
3344.3	60.539
3452.7	63.812
3545.3	64.031
3323.6	60.208
2717.6	51.264
1823.6	38.484
883.01	28.16
534.68	26.401
951.48	33.015
1157.9	37.216
1093.4	36.62
1054.7	27.659
1446.3	13.601
2097.8	9.0554
2687.1	26.571
3042.6	41.437
3121.4	50.774
2969.6	53.339
2706.4	46.69
2465.5	35.057
2319.6	24.166
2216.5	23.601
2067.2	32.202
1814	38.897
1471.6	39.925
1079.6	34
698.82	22.804
360.46	11
113.28	15.811
276.38	29.411
508.66	39.56
679.86	44.102
730.64	43.105
641.21	38.949
423.14	31.064
187.52	25.495
372.59	24.739
664.63	28.178
851.26	31.575
876.7	32.558
735.26	31.016
495.62	26
355.01	21.587
533.92	18.682
763.05	19.925
885.21	23.324
845.2	25.612
659.38	24.739
403.27	20.616
287.61	15.556
486.03	9.2195
700.46	3
825.54	2.8284
826.35	6.7082
725.39	12.649
551.55	19.235
335.7	27.459
132.03	34.655
155.23	38.471
325.19	40.311
474.3	38.833
570.55	33.136
610.35	27.857
595.32	22.672
537.37	20.591
462.95	21.024
394.08	23.324
336.38	27.514
282.25	32.696
208.19	37.162
108.23	41.11
22.091	43.417
96.333	43.174
145.25	39.962
130.23	36.401
66.098	32.202
112.18	28.636
260.16	24.042
405.45	19.235
504.93	11.705
543.8	2
510.78	8.2462
421.74	17.088
308.87	24.597
214.71	29.411
2722.8	57.801
3517.8	53.488
4053.3	46.141
4216.8	45
4038.8	52.431
3693.5	57.271
3366.6	53.254
3227.6	38.833
3265.4	21.024
3351.7	34.205
3369.3	65
3263.8	93.68
3010.2	109.48
2595.4	110.45
2045.1	96.649
1589.3	70.235
1825.5	36.222
2856	3
4210.2	26.833
5595.1	45.541
6856.8	51.624
7879.6	46.39
8620.9	33.302
9074.8	23.77
9255.4	29.155
9216.2	40.804
9008.3	47.011
8695.2	46.648
8355.7	39.661
8029.3	29.833
7724.5	21.095
7380.5	16.125
6922.4	15.133
6306.9	12.042
5522.1	9.0554
4624.8	8.544
3713.7	10.77
2914.7	13.038
2320.8	11.662
1961.2	9
1771.3	11.18
1673.8	20.616
1587.9	31.048
1462.8	40.804
1252.5	48.795
943.4	55.082
611.82	58.941
575.23	62.241
924.32	64.63
1285.4	68.096
1488.1	72.45
1499.1	78.435
1319.9	84.315
1034.3	87.006
745.94	84.599
539.58	78.243
363.9	73.348
98.6	80.324
355.49	105.68
884.69	139.72
1420.1	173.42
1818.9	200.86
1970.9	215.94
1800.4	217.15
1331.2	202.71
769.53	175.97
889.38	139.52
1593.9	97.144
2186.3	56.08
2432.5	23.601
2235.1	28.443
1590.9	47.634
692.03	61.66
1029	67.007
2312.1	65.276
3529.8	57.28
4475.5	43.417
5038.6	27.203
5189	18
4995.3	33.242
4553.6	55.027
4016	73.007
3502.8	86.023
3073.8	90.028
2692.6	86.579
2284.7	76.217
1796.5	65.069
1233.8	54.203
692.2	47.76
532.36	44.147
881.82	38.949
1290.3	32.388
1611.6	26.926
1872.9	28.018
2098.8	33.541
2329.6	39.294
2549.9	40.249
2728.7	35.777
2822.7	27.295
2798.1	17.205
2652.7	9.8995
2406.9	7.8102
2094.6	8.9443
1762.8	10.77
1453.8	14
1186.3	19.416
984.98	25.71
840.44	30.017
754.49	29.411
708.25	26.926
675	26.249
621.61	33.106
547.27	43.738
443.08	53.6
334.19	60.017
274.61	61.587
320.41	57.974
416.7	52.355
508.55	43.681
568.49	35.511
597.4	26.476
574.5	17.205
525.12	7.0711
453.61	7.2801
381.24	17.029
314.44	26.306
273.88	30.871
265.37	31.064
311.44	27.074
399.8	18.974
526.74	10.77
648.05	9.2195
740.43	15.524
785.21	22.023
766.09	25.08
698.38	26.87
600.67	26.401
511.63	25.08
461.59	25
441.95	26.249
413.3	26
349.01	27.166
234.47	27.203
101.51	27.313
145.15	27.019
293.04	27.731
407.27	28.32
464.57	30.083
451.14	32.016
371.81	34
254.34	34.986
109.44	35.057
34	34.713
144.78	33.242
214.67	33.601
232.77	33.734
214.85	34
200.57	33.106
223.38	28.443
290.06	21.932
370.84	13.601
408.71	5.099
407.41	6
365.45	14.318
294.2	20.248
208.06	25.179
843.06	24.739
2184.3	35.735
3786.7	52.01
5007.3	64.14
5619.2	68.542
5595.2	63.325
5115	50.537
4542.5	37.014
4318.4	39.962
4539.8	60.299
4839.4	84.054
4811.8	104.24
4272.4	115.11
3272.2	116.11
2173.6	107.48
1933.7	91.005
2846.1	70.178
3908.7	51.865
4700.8	45.011
5218	51.264
5667	61.855
6309.4	68.469
7238.4	69.656
8326.7	64.281
9336.2	55.973
10061	45.011
10376	34.059
10246	23.77
9708.3	13.342
8845.8	7.0711
7789.9	11.045
6654.7	19.313
5596.7	26.833
4738.7	30.364
4172.1	29.069
3883.2	24.042
3754.4	16.971
3656.5	15.62
3491.2	24.352
3231.4	34.54
2887.4	43.012
2485.5	47.434
2046.7	47
1593.7	43.566
1142.9	38.079
731.82	34.132
426.13	33.242
292.33	39.205
237.92	49.193
140.43	63.127
333	79.63
744.11	93.622
1205.9	103.82
1596.1	106.02
1807.7	99.765
1764.5	85.709
1429.3	68.029
853.32	67.119
268.25	93.086
858.01	132.44
1579	172.2
2096.6	204.39
2314.1	222.38
2238.6	226.32
2005.5	212.53
1919.9	184.57
2188.9	145.34
2646.8	98.955
2985.9	51.884
3018.1	16.553
2712.4	34.059
2190.7	57.14
1894.2	70.178
2306.9	71.309
3168.8	62.298
4001.3	46.755
4565.8	27.313
4789.2	16.971
4676.5	29.155
4336.3	47.802
3890.1	62.514
3450.8	72.45
3074.5	78.39
2750.9	78.313
2460	75.166
2201.8	66.708
1997.2	57.775
1840.7	46.53
1683.4	36.139
1486.5	27.295
1329.2	21.471
1441.5	20.025
1896.3	22.204
2499.4	25.962
3067.2	28.653
3458.5	31.048
3599.3	33.287
3471.6	33.242
3107.9	31.828
2586.4	27.166
2006	22.361
1500.6	15.811
1226.8	10.44
1255.2	8.544
1427.7	11.18
1586.9	14.318
1648	16.155
1596	17.493
1442	20.1
1214.3	24.839
955.58	29.833
723.06	36.674
542.64	44.011
450.69	50.695
418.62	57.009
400.64	61.27
371.86	61.847
333.26	59.203
291.67	52
265.02	41.4
277.65	28.16
308.6	13
356.55	2
394.41	13.928
416.27	22.804
424.95	26.87
425.28	27.203
437.5	25.179
466.2	20.591
521.97	14.142
615.16	9.2195
721.91	6.7082
822.39	8.0623
887.6	14.036
889.45	18.974
839.03	24.839
722.93	28.178
579.42	30.15
434.33	29.12
307.85	27.203
204.02	24.839
138.05	24.187
170.11	26.249
305.9	30.017
440.54	32.311
525.86	33.242
530.21	32.573
435.76	30.265
261.49	27.295
68.25	24.759
214.62	25.495
393.81	28.071
482.1	32.311
460.09	37.202
347.83	40.012
266.79	41.617
379.73	40.804
572.46	37.696
707.41	32.249
721.09	24.515
614.4	15.264
407.12	6.4031
127.76	9.4868
173.18	18.028
408.59	25.962
565.07	31.385
3184.4	33.734
1764.1	25.08
796.83	37.947
2603.8	57.035
4559.6	69.778
6107.7	72.201
7101.7	62.801
7583.9	48.332
7682.7	47.011
7601.5	71.554
7414.4	100.96
7102.6	126.14
6601.1	139.56
5966.9	139.22
5440.5	127.31
5314.6	105.91
5521.7	84.534
5644.2	69.642
5239	67.268
4164.3	71.589
2884.3	74.847
3361.8	73.389
5826.7	66.641
8628.9	55.027
10989	42.048
12491	25.632
12927	8.544
12290	7.6158
10786	22.804
8728.7	32.802
6564.7	36.014
4777.4	32.558
3840.5	24.083
3795.9	12.207
4140.1	9.2195
4490.3	16.643
4726.6	20.396
4813	17.804
4705.9	8.0623
4356.8	6.7082
3736.6	23.087
2872.2	39
1862.9	51.884
877.05	61.612
368.92	66.03
829.72	67.268
1094.3	63.655
1010.8	53.852
639.25	40.112
503.98	35.128
1142.6	54.745
1886.6	86.145
2442	114.86
2681	131.93
2534.4	132.06
2044.1	112.77
1348.9	73.661
944.37	36.235
1419.2	70.406
2096.4	133.24
2560.7	189.31
2711.9	228.54
2633.9	246.17
2495.3	240.31
2552.2	213.69
2820.8	172.47
3103.4	123.76
3196.3	76.551
2989.6	36.069
2518.6	13.038
1952.9	23.345
1645.2	37.643
1856.1	48.765
2323.9	57.489
2745	61.294
3043.4	59.933
3266.3	50.21
3528.1	34.986
3846.6	23.345
4161.6	32.202
4382.2	52.01
4407.2	69.778
4195.9	82.298
3771.2	87.459
3185.5	86.4
2521.6	78.772
1852.7	67.417
1260.9	53.339
844.73	39.623
707.11	27
849.56	17.029
1119.5	12.649
1421.7	12.649
1771.2	15.524
2148.2	19.849
2532.9	25.08
2870.8	31.145
3108.7	35.609
3176	36.688
3047.2	34.785
2724.9	28.844
2237.6	21.213
1686.4	12.207
1191	3.6056
990.22	5.831
1140.3	13.153
1378.3	19.849
1519	25
1516.1	29.833
1392.1	33.956
1183.3	38.484
970.66	45.618
814.51	53.16
759.96	60.374
771.69	65.391
785.41	65.734
753.11	62.29
680.24	53.151
575.76	41.485
452.2	29.206
326.72	18.439
203.03	12.042
89.107	8.6023
93.52	7.2801
238.32	10.198
415.93	17.263
603.21	25.318
786.84	29.682
927.83	29.53
1025.5	25.02
1065	16.279
1046.4	6.7082
976.79	12.728
879.62	23.022
762	30.017
631.15	31.064
469.52	28.443
281.54	22.023
111	19.026
182.13	21.213
343.21	28
448.09	32.573
475.3	34.205
415.46	33.287
286.83	29.411
127.48	26.173
100.6	26.019
222.43	26.683
294.21	29.069
295.66	30.414
228.95	31.78
129.44	32.016
23.195	32.894
52.326	33.971
69.584	35.847
37.216	37.121
114.11	36.892
260.28	35.777
397.46	31.257
505.29	25.495
516.98	16.125
449.98	8.6023
299	9.4868
95.441	17.029
133.15	24.515
338.3	30.083
3075.3	24.187
2176.6	14.866
1423.5	26.87
2251.6	44.294
3962	57.079
5706.7	62.266
7155.2	60.745
8140.5	55.073
8550.5	59.008
8364.6	75.802
7679.3	100.13
6709.9	122.49
5812.7	136.72
5407.5	138.8
5614.6	129.77
6086.3	111.32
6336.2	88.204
6051.3	68.622
5106.7	61.392
3628	66.528
2424.3	73.062
3421.9	73.6
5799.5	67.357
8235.4	54.12
10231	37.537
11520	19.235
11966	3.1623
11573	9.4868
10445	17.464
8843	22.023
7096.4	23.022
5627.5	22.627
4864.5	21.024
4828.3	18.439
5107.8	14.036
5279.9	8.4853
5160.5	4.2426
4746	7.0711
4119.8	9.2195
3400.3	8.544
2726.1	8.544
2192.1	17.804
1847.6	35.128
1601.4	54.037
1362	70.937
1021.9	81.498
588.19	83.006
307.38	74.027
746.57	59.942
1292.9	51.039
1757.1	65.069
2069.5	93.005
2212.2	117.95
2216.9	131.31
2149.4	127.48
2078.2	103.71
2044.5	62.394
2045	21.471
2057.8	67.067
2111	128.1
2240.6	181.43
2496	217.18
2826.5	233.08
3138.4	227.98
3324.9	202.25
3310.4	164.2
3088.7	120.07
2672.3	77.233
2165.6	42.953
1732.2	22
1550.9	14.422
1666.6	16.763
1931.7	27
2222.8	42.107
2513.3	56.303
2836.3	62.626
3191.5	59.169
3558.8	44.911
3874.2	24.331
4081.6	21.541
4148	48.083
4059.3	75.802
3830.5	95.383
3487.9	105.17
3067	102.55
2594.3	90.907
2074.7	71.386
1523.2	49.336
979.72	27.659
635.9	11
853.25	6.3246
1382.5	10.77
1905.6	13.342
2350.6	18.248
2665.6	26.077
2847.9	34.928
2903.9	41.11
2864.5	43.932
2753.9	41.785
2600.4	35.805
2394.5	27.074
2133.7	17.804
1808.3	10.296
1441.4	9.434
1100	13.342
907.63	18.385
960.78	22.472
1156.3	27.166
1329.7	32.527
1402.2	40.012
1365	46.669
1241.9	54.148
1094.9	58.523
991.23	61.098
970.6	59.439
991.92	55.172
1002.3	48.384
946.91	40.311
816.16	31.765
625.74	25.456
396.84	20.591
193.04	17.117
193.4	12.083
357.56	9.2195
504.02	9.8489
616.29	16.125
705.11	21.541
771.55	24.739
817.52	24.759
853.84	22.204
884.36	17.493
899.8	13.342
888.74	11.314
845.62	12.042
768.65	12.806
646.42	12.53
485.45	12.649
306.75	13.601
139.52	15.297
107.7	18.028
218.36	19.026
296.52	19.235
330.28	21.587
302.37	25
234.39	28.636
142.14	32.802
49.254	33.422
56.08	31.765
117.05	30.083
156.31	29.732
153.05	33.526
133.82	39.623
112.71	46.098
104.4	49.769
137.61	50.249
181.5	46.957
232.82	40.2
289.83	32.28
327.2	22.204
348.83	13.038
329.12	4
279.38	4.1231
188.61	11.705
79.057	17.692
80.654	23.259
198.86	28
3284.9	13.928
2615.7	20.616
1514.7	38
1570.9	51.225
3491.2	58.941
5680.6	60.926
7594.4	58.592
8907.3	57.009
9401.6	60.745
9047.6	69.354
7997.3	81.835
6614.5	95.635
5507.8	108.78
5242.7	119.62
5717.1	123.57
6264.3	121.34
6389.4	109.6
5932.4	94.191
4948.5	82.024
3730.5	78.918
3063.4	83.528
3919.5	88.645
5794.6	85.703
7879.9	71.568
9746.6	47.854
11108	18.028
11755	11
11547	35.355
10494	48.877
8763.5	50.04
6700.7	41.146
4890.3	22.804
4170.4	3.6056
4664.6	15.811
5435.3	26.627
5834.4	27.459
5681.9	18.248
5067.1	5.099
4193.7	16.031
3277.7	31.321
2515.8	39.962
1962.2	43.278
1573.5	46.755
1311	57.315
1199.1	74.653
1220.1	89.157
1248.1	94.26
1195.9	85.866
1137.5	64.008
1331.9	39.56
1820.9	46.573
2402.1	81.025
2875.5	110.65
3120.3	124.17
3071.3	116.5
2763.7	87.092
2307.3	43.278
1883.7	29.614
1713.7	82.759
1848.3	133.56
2121.6	172.8
2367.5	193.41
2550.8	197.31
2672.1	185.27
2757	164.84
2761.5	140.35
2699.4	116.52
2542.5	94.021
2363.5	72.443
2266.5	52.393
2332	32.802
2523.6	15.524
2696.3	9.4868
2718.7	15.264
2580	20.248
2400.1	22.472
2453.8	24.187
2892.4	23.195
3556.6	17.493
4167.2	7.2801
4514.7	13.454
4503.7	35.903
4136.2	60.166
3512.5	81.394
2795.5	94.921
2195.3	98.615
1803.3	92.114
1541.6	76.322
1232.5	54.589
844.32	31.575
840.49	14.036
1442.6	13.038
2157.5	16.553
2719.1	14.142
3020.8	10.05
3041	18.439
2855.7	32.249
2615.4	43.829
2479.4	50.01
2479	50.12
2500.5	43.012
2406.2	30.594
2114.3	16.031
1636.7	5.6569
1080	16.125
726.31	26.401
914.05	33.302
1284.8	36.139
1549	36.688
1627.5	35.609
1533	36.014
1328.9	39.699
1098.9	45.891
938.86	52
896.73	57.009
936.77	58.856
965.29	55.785
928.95	49.204
809.04	40.224
613.58	31.385
370.03	25.298
104.32	23.537
146.49	22
360.54	19.313
524.62	12.806
636.92	6.4031
710.35	11.402
757.98	21.378
798.66	29.155
834.09	32.65
868.7	32.558
895.52	29.12
894.44	22.023
864.57	15.264
791.92	8.9443
658.71	7.8102
474.31	9.2195
275.59	10.817
117.27	11.18
194.06	8.2462
318.68	5.831
374.17	4
364.8	8.2462
294.75	12.042
205.18	16.125
160.31	18.028
196.54	18.248
230.96	15.133
225.57	10.198
174.63	9.4868
129.4	15.652
164.92	25
245.45	32.062
316.22	37.696
353.8	39.699
349.45	39.962
310.46	37.363
256.53	35.014
197.8	31.575
149.4	27.731
118.71	23.345
100.45	15.652
105.17	7.0711
115.42	5
127.58	15.133
145.89	23.854
826.11	32.573
613.09	29.275
1709.7	35.511
3119	48.384
4577.4	60.902
5895.1	69.584
6912.5	75.073
7534.1	76.243
7780.3	73.546
7786	71.4
7720.8	71.344
7701.5	76.942
7679.4	85.866
7512.8	98.412
7055	110.37
6268.5	119.57
5249.5	124.58
4193.5	122.05
3285.7	114.61
2665.6	101.77
2487.2	86.331
3092.9	70.711
4498.3	57.567
6334.5	46.519
8175.3	37.696
9637.2	27.857
10399	16.643
10285	10.77
9276.7	14.866
7543.3	21.932
5475.3	25.318
3743	25.239
3365.4	21.26
4187.1	17.804
5045.1	19.105
5453.6	21.932
5397	25.807
5065.6	27.295
4686.1	28.636
4419.3	31.78
4209.9	38.275
3903.8	44.721
3371.7	51.088
2591.8	54.083
1614.7	53.824
564.23	49.041
450.77	42.544
1317.6	31.401
1970.7	18
2377	7.2111
2535.6	22.023
2472.7	41.231
2256.6	57.801
1985.2	68.029
1831.7	70.859
1915.7	68.015
2177.1	64.777
2465.1	72.897
2661.6	95.635
2713	123.17
2623.5	146.28
2434	160.61
2212.2	162.75
2031.6	152.32
1941.7	134.73
1970.5	116.3
2125.6	103.47
2381.9	99.765
2683.7	99.298
2955.7	94.557
3131.8	83.006
3148.7	63.569
2981.9	40.497
2651.1	21.471
2256.6	19.235
1994.7	26.306
2089.7	27.074
2485.1	19.416
2958.9	13.601
3330.6	26.907
3497.7	46.957
3444.6	64.008
3211.3	76.942
2864.6	82.492
2492.6	81.056
2170.6	74.404
1928.9	64.514
1768.5	52.887
1656	39.623
1579.2	26.926
1550.3	16.125
1596.2	14.765
1725.6	22.825
1915.7	31.401
2087	37.363
2174.5	39.699
2126.1	37.577
1933.9	34.015
1682.2	29.732
1522.3	25.495
1598.2	20.616
1811.4	16.279
1976.1	12.207
1939.3	10.296
1635.1	12.042
1089.4	16.125
484.37	21.84
703.83	29.155
1380.8	35.355
1927.2	43.139
2227.6	49.477
2243.3	53.852
2019.9	55.973
1626.9	55.462
1175.8	53.235
746.88	50.01
404.15	46.53
154.33	43.139
79.404	38.079
297.38	32.016
510.44	25.02
666.22	18.111
710.34	14.036
643.01	13.153
479.43	11.18
294.91	8.9443
288.18	8.4853
449.47	14.56
611.57	23.601
746.45	31.145
887.45	35.468
1032.4	33.971
1160.3	29.732
1227.5	20
1188.6	11.045
1035.2	7.8102
795.53	14.422
542.64	19.849
415.77	19.313
479.02	16.031
587.02	9
631.59	6.4031
615.69	13.928
563.25	21.401
510.89	25.239
471.6	24.739
444.53	20.1
424.38	12.369
422.61	6.7082
442.3	13.601
465.93	21.932
458.46	28.302
433.04	31.321
432.99	32.016
506.45	31.575
621.66	30.083
706.4	29.155
714.12	29
618.05	27.785
441.69	24.515
261.44	20.396
221.35	15.62
327.96	12.369
400.78	10.817
388.15	13.342
340.9	16.492
1576.8	34.132
1608.6	25.612
1807.7	30.232
2231.1	46.098
2947.8	66.03
3989.9	81.541
5320.1	91.548
6806.2	92.65
8220.7	85.983
9344.5	75.186
9954.5	67.03
9920.7	67.476
9229.2	77.492
7992.3	92.849
6450.6	107.34
4915.2	118.87
3692.1	125.9
2869.3	128.65
2194.9	124.62
1478.4	115.38
1445.8	99.005
2774	78.032
4534.2	53.712
6197.5	30.067
7464	11.045
8154.5	6.3246
8213.5	12.166
7689	13.153
6723.1	15
5485.2	22
4136.5	30.083
2825.2	34.205
1835	32.202
1773.4	23.087
2550.9	8.6023
3416.9	9.2195
4021	25.08
4242.8	36.674
4086.3	40.224
3707.5	35.128
3374	23.409
3309.7	9.4868
3457	14.866
3528.3	29.069
3286	39.115
2636.5	43.186
1640	43.105
493.88	41.012
864.34	40.311
1893.3	41.34
2636.5	42.45
3031.1	42.19
3128.8	39.812
3016.6	37.202
2801.8	38.013
2544	43.566
2249.2	55.758
1921.6	76.655
1674.7	102.14
1706.5	130.12
2024.6	153.44
2414.3	167.29
2690.6	166.33
2780.4	149.47
2734.6	119.04
2679.8	81.492
2763.8	54.589
2997.6	61.66
3250.6	84
3383.8	99.161
3320	97.745
3020.6	81.786
2517.3	54.083
1864.4	20.591
1172.7	12.728
770.28	33.377
1125	43.139
1745.6	40.012
2285.9	28.844
2627	29.206
2755.5	49.244
2699.5	71.113
2554.9	85.709
2460.6	90
2482.6	84.534
2576.6	71.449
2635.6	57.559
2604.6	49.477
2488.8	47.17
2399.3	46.615
2421.1	41.4
2551.7	30.676
2686.7	17.72
2691.6	15.62
2507.1	27.803
2115.9	38.949
1574	46.011
983.6	46.615
546.96	42.379
595.37	33.838
857.39	24.187
1023.4	14.866
1041.8	8
944.73	7.0711
785.4	6.4031
657.28	3.6056
638.79	8.0623
734.44	19.698
869.49	33.838
1005.9	47.043
1118.8	58.669
1198.9	64.008
1236.8	63
1238.9	55.902
1203.8	43.863
1129.5	32.45
1023.9	28.601
890.6	33.838
744.11	40.162
592.12	41.11
430.5	36.715
259.07	26.627
64.008	14.866
150.99	8.0623
372.46	16.492
578.77	25.495
752.01	30.364
880.71	31.385
949.19	30.414
983.35	26.926
998.42	24.187
1002.7	20.881
991.97	16.643
955.13	12.042
869.55	7.2111
737.18	2.2361
563.31	3.6056
365.31	6.0828
198.2	7.0711
180.8	5.3852
282.72	5.3852
370.3	6.3246
413.08	8.6023
403.82	9.4868
354.32	9.4868
274.75	8.544
206.2	7.8102
184.62	9.8489
210.02	14.318
240.3	18.028
239.85	20.881
199.58	21.19
135.07	20
88.119	17.117
138.6	12.369
231.41	9.2195
318.6	11
391.77	17.464
435.93	22.204
450.19	26.42
419.64	27.074
356.13	26.249
269.52	23.601
180.32	20.518
145.36	20.809
157.66	23.259
658.43	33.615
676.48	36.346
1228.8	43.012
1874.8	51.865
2922.4	59.54
4496.1	67.231
6395.1	73.41
8287.2	78.746
9808.4	81.099
10660	78.549
10652	72.007
9781.9	65.115
8187.6	66.068
6188.6	79.612
4193.6	101.53
2668.7	123.49
1928.4	139.61
1576.9	146.37
961.28	141.06
487.37	124.81
1805.4	100.72
3363.4	71.021
4734.5	40.311
5701	13.342
6161.4	5.831
6152.2	17.464
5838.3	19.313
5380.3	16.031
4900.6	18.439
4355.2	29.206
3641.1	39.623
2676.4	45.607
1511.8	45.1
508.56	37.643
1183.1	28.46
2058.8	25.02
2556.2	31.385
2608.8	38.013
2303.8	38.079
1905.8	29.12
1841.8	13.892
2231.4	7.8102
2725.1	27.166
3042.9	42.521
3063.9	49.98
2806.3	49.366
2328.7	42.059
1739.9	33.422
1138.1	28.32
699.24	28.425
796.22	26.683
1285	20.248
1830.9	22.361
2311.6	43.105
2682.3	68.797
2911.5	92.59
2995.6	108.04
2963.5	115.17
2842.7	115.42
2660.4	116.66
2430.9	123.88
2194.5	135.33
1985.1	143.85
1837.5	141.2
1771.2	122.64
1782.1	90.355
1897.3	46.819
2150.9	7.8102
2537.5	46.872
2960	80.281
3290.5	99.624
3400.8	102.14
3206.1	89.889
2708	69.123
2000.2	50
1421.5	43.566
1553	50.804
2217.6	61.131
2853.7	69.642
3235.7	77.492
3304.9	86.539
3133.8	91.548
2873.7	90.824
2689.7	79.511
2674.1	59.405
2742.1	34.205
2764.1	23.409
2674	41.976
2515.2	59.908
2389.2	67.119
2413.4	60.075
2549.2	41.4
2677.9	16.031
2676.6	17
2475.7	42.059
2081.9	59.816
1549.1	66.483
991.06	60.926
622.26	46.228
708.49	26.926
960.5	9.4868
1107.2	12.166
1089	19.313
911.57	19.209
640.65	11.18
424.98	9.434
534.34	23.022
843.29	37.443
1130.7	47.885
1343.3	53.339
1442	54.129
1446.3	52.773
1359.9	51.088
1215	49.82
1044.2	47.424
871.37	43.932
710.66	37.014
560.41	31.064
417.97	28.018
288.69	30.15
216	31.321
267.92	29.682
377.61	24.083
482.07	15.264
563.8	10.296
620.44	17.464
667.06	26.926
708.45	33.287
742.5	35
759.42	33.015
751.18	27.893
708.37	23.324
644.9	19.416
571.18	15.62
503.18	12.042
443.6	7.8102
390.67	4.4721
325.21	5
248.24	7.0711
177.55	8.4853
157.05	7.2801
189.04	4
222.99	3.6056
231.61	8.6023
209.31	12.53
155.08	14.036
84.929	13.454
43.012	11.18
69.857	11.402
99.644	15.62
104.94	20.224
91.285	23.259
78.16	24.413
64.498	20.396
57.801	15
79.981	11.18
138.45	14.765
212.08	21.024
285.27	27.295
334.52	31.401
349.46	31.305
327.1	29.069
261.73	24.839
173.95	23.431
98.478	24.207
130	27.459
2577	52.01
2981.7	61.392
3237.2	67.231
3478	68.411
3976.1	64.288
4886.3	59.008
6101.3	58.31
7348.4	65
8329.4	75.18
8834.8	80.66
8746.4	76.557
8056	62.968
6860	50.22
5366.8	57.697
3819.9	85.44
2551.2	118.04
1960.7	141.55
2128.1	153.53
2574.1	150.27
3013.5	131.91
3404.4	103.59
3718	69.426
3924.6	35.693
3971.3	12.166
3871.6	21.401
3700.3	32.65
3579.7	35.355
3587.9	31.241
3684.1	26.683
3757	24.042
3674.4	26.249
3390.9	29.017
2914.9	30.61
2323.5	28.16
1706.5	24.739
1164	20.616
769.41	17
528.25	15.033
382.9	11.662
287.69	8.2462
330.39	6.0828
560.86	11.705
889.45	20.125
1263	28.792
1660.6	34.176
2020	38.471
2297.4	38.328
2451.1	36.359
2460.5	32.757
2332.3	29.206
2103.6	23.195
1832.2	19
1591.8	26.173
1443.4	46.271
1425.1	69.971
1542	92.785
1775	109.07
2082.8	114.97
2388.6	109.22
2633.4	95.079
2777.1	81.253
2817.8	81.786
2782	98.25
2739.3	116.66
2734.4	124.47
2781.9	116.08
2863.2	88.119
2934.3	48.27
2990.7	20.396
3002.4	61.351
2939.9	102.53
2752	128.46
2394.3	134.01
1848.3	119.28
1154.6	87.641
589.67	49.82
948.63	39.623
1644.6	71.176
2180.6	102.46
2450.1	118.7
2415	118.34
2140.8	103.41
1771	77.929
1522.7	47.508
1547.3	21.471
1724.1	20.616
1829.1	33.541
1773.5	40.025
1589.8	38.288
1420.8	31.048
1451.4	21.471
1694.2	16.031
1980.8	18.358
2176.3	25.298
2209.2	31.401
2068.4	34.132
1787.7	35.777
1424	33.615
1034	30.265
739.81	25.495
713.39	21.024
926.03	16.971
1188.2	11.18
1392.4	3
1488.4	10
1461.9	22.847
1328.9	36.401
1123.3	45.541
886.48	51.546
667.03	50.931
528.1	45.618
508.43	38.833
579.18	33.136
680.24	32.016
765.99	33.136
813.49	32.894
827.86	28.844
834.23	21.932
864.89	16.401
920.01	17.088
979.17	23.259
1005.7	26.907
967.06	24.597
873.48	17.029
750.7	5
647.82	10.198
608.1	23.087
610.95	33.615
601.4	39.115
538.18	40.112
425.64	35.847
279.11	27.659
144.2	17.464
63.151	8.2462
60	0
87.693	5
164.25	7.2801
272.59	7
376.7	7
448.91	7.0711
472.49	7.0711
427.93	6.3246
348.89	5.3852
263.88	4.4721
202.25	2.8284
186.3	1
186.1	3.6056
182.8	8.9443
187.61	16.031
218.5	21.471
258.16	25.807
274.69	27.459
249.73	25
197.5	19.209
130.54	10
92.049	4.1231
86.885	13.038
78.638	21.587
39.56	26.306
91.444	27.459
192.51	23.601
291.15	18.385
341.15	12.083
337.42	10.63
261.66	15.811
136.21	20.518
3078.7	62.426
3433.8	76.557
3655.7	83.217
3736.3	81.006
3835	69.426
4215.1	55.758
5010.4	49.204
6083.5	58.796
7130.6	73.246
7884.3	80.777
8143.7	76.105
7815.1	58.523
6918.7	37.483
5591	45.188
4071.4	80.623
2783.5	116.52
2404.5	141.38
2983.9	152.97
3725.5	148.25
4212.1	130.03
4360.9	101.13
4222.4	67.882
3917.3	36.62
3601.4	20.591
3397.5	26.306
3331.8	33.526
3338.3	34.828
3316.7	29.547
3222.1	21.587
3066.3	16.553
2901.7	18.601
2764.9	24.331
2669.1	31.016
2550.1	33.971
2339.9	33.526
2001.4	29.275
1526.4	22.472
966.32	13.038
383.82	3
228.98	5.099
670.1	10.44
997.99	14.422
1194.7	18.439
1282.6	21.19
1294.6	23.195
1310	24.759
1400.7	27.074
1602.1	31.89
1879	39.459
2158.3	44.777
2357.4	44.822
2426.4	39
2356.3	32.65
2212	44.045
2120.5	70.178
2216.4	97.745
2476.6	118.53
2754.9	126.19
2915.4	117.05
2871.1	93.862
2623.2	64.498
2244.5	54.129
1879.3	78.549
1684	106.74
1710.3	122.81
1810.9	119.85
1862.2	98.717
1804.9	68.819
1684.9	54.424
1584.5	76.007
1554.7	106.83
1562.8	126.57
1533.6	129
1410.3	113.64
1200.7	86.348
975.98	56.356
870.1	43.841
927.24	55.66
1040.8	73.246
1092.2	83.15
1021.6	86.035
829.48	82.462
560.33	77.104
289.32	68.007
233.33	55.036
387.98	37.656
488.77	21
487.37	24.083
380.26	40.608
200.19	54.406
133.69	58.052
365.76	52.345
621.88	39.205
848.63	27.459
1027.8	31.241
1142.9	43
1186.4	51.4
1147	51.478
1022.9	44
823.38	32.016
556.47	23.195
241.11	25.179
109.27	32.062
443.31	35.511
757.08	34.176
1014.9	31.305
1207.7	32.65
1332.4	38.013
1393.9	44.045
1409.2	46.174
1401.7	42.297
1366.2	33.838
1310.1	21.954
1219.3	9.4868
1095.7	5.099
950.71	12.042
823.02	15.811
750.08	14.866
746.73	10.77
774	6.0828
768.96	5.099
710.89	8.0623
594.63	11.314
440.6	12.166
302.4	13.928
259.59	15.62
304.07	20.1
349.91	25
361.37	29.069
323.51	31.145
261.12	30.594
189.68	27.514
120.44	21.932
48.826	16.155
67.543	11.18
163.59	9.0554
258.79	8.0623
338.43	6
386.06	4
397.55	2.8284
382.97	5.831
350.13	9.2195
330.25	8.544
316.6	6.0828
295.01	4.2426
246.46	9.8489
173.09	16.401
106.79	22.825
134.97	26.077
211.75	26.571
269.9	23.345
286.82	17.464
263.75	11.18
231.54	5.099
228.58	3.1623
256.85	6
303.45	9
332.21	12.042
333.94	15.811
310.58	18.439
267.32	18.788
224.61	15
162.53	9.434
96.047	3.1623
36	7.2111
91.608	14.036
2747.4	70.007
2937.5	85.147
3226.4	91.302
3458.1	86.833
3600.9	71.386
3779.1	47.927
4211	29.155
5004.8	39.395
6005.5	60.44
6930	72.111
7488.4	69.778
7484.6	50.249
6842.7	18.028
5614.2	26.627
4000	70.292
2456.4	107.97
2020.6	133.82
2926.4	145.34
3877	139.61
4398.2	120.51
4434.6	93.381
4153.7	65
3828.8	42.154
3718.7	34.525
3840.8	36.056
3987.9	37.216
3958.6	36.674
3698.4	35.44
3312.1	35.341
3010.8	34.059
2971.9	29.967
3117	22.204
3236	17
3142.1	20
2778.4	27.295
2186.5	31.78
1485.2	32.558
867.12	29.155
665.93	23.345
882.39	17.117
1100.5	13.342
1229.9	10.44
1351.1	7.0711
1530	11.045
1755	22.361
1949.8	35.014
2052.6	47.127
2056.4	56.303
1997.6	60.308
1949.2	59.034
1943.8	53.852
1965.9	47.074
1952.7	44.922
1853.1	53.852
1679.1	69.921
1535.4	88.142
1551.8	99.725
1751.6	102.8
1989.5	94.515
2119.3	73.437
2053	42.953
1773.7	15.811
1344.8	39.395
933.54	72.125
859.07	96.566
1126.1	110.68
1388.3	112.61
1495.7	108.34
1421.2	102.34
1273.2	100.96
1240.6	104.22
1437	107.56
1740.3	107.78
1981.9	100.9
2070.6	89.404
1966.3	76.105
1698.1	61.717
1314.4	49.729
881.08	41.773
459.47	41.183
99.323	46.755
199.57	56.613
406.1	64.327
535.86	65.765
588.48	60.017
556.92	47.011
454.44	31.257
327.29	23.087
336.38	34.132
515.1	48.083
722.06	57.983
877.54	60.133
958.53	54.818
969.88	45.541
923.65	33.377
850.67	21.954
763.78	16.643
649.9	17.804
500.99	21.471
332.27	23.195
245.08	21.932
377.04	17.029
574.57	12.083
746.85	13
869.97	20.616
956.12	29.155
1022.1	34.132
1087.7	33.541
1135.3	29
1148.4	19.925
1111.6	15.133
1035.4	20.1
940.56	27.459
864.49	31.623
814.33	30.414
767.47	23.022
697.22	10.817
605.76	2.2361
549.89	14.142
572.75	21.26
651.37	24.042
716.38	19.925
710.68	11.402
608.84	1
446.23	12.083
303.9	22.361
339.18	28.862
486.54	32.45
592.89	33.541
606.53	33.287
530.09	32.985
385.98	31.385
247.13	28.636
251.18	22.023
354.81	14
442.6	4.4721
469.51	5.099
444.5	11.705
383.99	15.264
328.89	15.033
294.39	12.042
267.02	7
231.02	3.1623
174.14	6.3246
102.86	9.2195
21.26	11.402
67.082	13
128.22	15.62
170.66	18.111
197.91	19.849
206.93	20.1
197.5	17.889
183.88	14.213
163.11	9.8489
158.69	7.6158
183.66	7.2801
220.84	7
249.01	6.4031
257.84	5.099
237.29	8.0623
203.77	12.042
153.38	15.297
108.67	16.553
61.741	16.643
23.087	13.038
68.242	8.4853
2839.3	48.01
2776.3	53.451
2868.1	55.803
3095.6	54.708
3372.7	46.174
3649.2	32.202
3985.9	14.56
4481.9	11.705
5138.3	27.459
5805.5	38.471
6248.9	42.544
6261.6	38.626
5726.9	33.377
4642.2	42.19
3130.4	63.569
1427.1	86.284
618.04	105
1893	113.25
2850.6	111.25
3272.8	99.04
3202	80.623
2834.2	61.351
2514	47.539
2543.9	41.437
2844.1	38.626
3094.7	34.928
3103.3	29.732
2849.5	29.275
2481.5	38.013
2251	48.662
2330.6	56.462
2601.5	58.898
2831.4	54.918
2863.8	46.487
2677.9	36.346
2298.9	26
1805.5	18.028
1285.7	12.369
824.83	10.63
528.79	14.866
503.31	22.136
641.58	28.231
801.83	33.121
972.98	37.202
1174.7	41.11
1395.3	47.508
1597	52.839
1726.8	55.785
1775.4	54.009
1752.7	45.607
1722.2	32.696
1727.6	23.195
1770	29.12
1774.2	45.607
1686.9	61
1512.6	71.47
1375.7	75.432
1457.8	73.573
1739.1	65.115
2025.6	51.971
2143.4	33.615
2005.7	10.63
1614.6	16.125
1074.4	43.829
685.17	70.803
867.61	93.648
1226.9	110.98
1410.5	121.26
1338.2	124.4
1080.1	120.97
904.73	115.52
1123.4	110.42
1564.3	106.07
1944.7	100.96
2153.1	94.921
2166.4	83.487
2047.3	67.357
1866.8	48.703
1681.6	37.363
1487.3	42.059
1244.2	56.08
922.14	68.542
556.42	73.817
377.66	72.007
595.02	62.801
839.77	49.649
944.97	36.797
886	33.615
691.18	40.311
441.45	47.802
273.78	51.245
305.94	48.27
356.03	42.202
341.59	34.828
385.02	30.529
585.53	31.78
861.3	33.541
1100.1	33.541
1241.3	29.411
1277.4	21.471
1238	11.18
1177.9	4.1231
1152.4	9.4868
1162	16.279
1155.3	19.313
1084.7	22.023
941.37	23.345
755.48	24.166
578.38	24.207
464.02	22.204
417.43	19.698
383.19	15.811
306.35	14.866
191.67	16.492
75.954	18
121.56	17.088
211.28	13.454
265.63	7
290.55	2.8284
293.92	9.8489
281.43	14.765
250.42	17.117
187.8	14.866
105.42	9.0554
124.31	3.6056
245.45	13.416
359.01	23.77
419.33	32.985
413.39	38.419
332.87	41.012
206.24	39.408
85.147	34.205
160.85	27.731
279.03	19.313
351.16	12.53
373.48	6.0828
355.76	6.7082
315.08	10
271.22	12.728
233.09	14.036
195.44	12.806
154.3	9.2195
114.83	4.2426
95.588	3.1623
87.92	7.2111
71.309	12.042
61.033	15
117.46	17.088
197.8	17.263
269.08	17.029
300.04	15.232
277.35	14.036
210.89	11.662
137.28	10.296
153.69	8
236.77	6.3246
305.56	5
324.62	4.2426
298.12	5.831
249.04	8
236.41	9.434
279.73	11.705
317.84	12.649
321.01	13.416
271.49	13.601
170.58	13.892
877.01	32.016
631.18	32.573
227.27	32.65
610.04	32.65
1194.3	34
1590.3	34.482
1724	32.65
1703.9	29.275
1894.9	22.672
2542.3	14.866
3428.8	17.088
4225.7	32.388
4684	51.624
4679.8	71.176
4193	86.833
3315.6	96.83
2224	99.539
1138.3	95.525
388.81	84.599
577.33	69.116
751.86	51.624
614.07	34.366
254.18	21.84
252.02	16.279
635.08	14.318
855.41	12.53
864.8	8.9443
726.04	5
607.41	10.63
672.31	18.248
789.06	25.632
795.49	29.732
715.29	32.016
816.37	31.575
1236.9	28.601
1748.2	23.854
2142.4	19.925
2302.5	17.263
2191.6	18.028
1875.8	21.378
1534.8	24.698
1415.2	27.203
1565.6	26.683
1753.9	24.187
1786.8	20.248
1617.3	17.088
1306.7	19.313
1018.7	24.698
932.8	27.203
1020.5	26.173
1082	18.868
1016.2	11.18
823.06	17.72
597.57	34.015
502.22	48.836
602.2	58.796
757.62	62.298
881.21	58.694
965.26	48.01
1002.1	34.132
970.78	20.396
840.87	8.0623
609.76	3.1623
332.63	16.125
312.61	35.341
571.11	60.308
762.08	88.295
784.97	114.56
612.01	134.47
279.58	146.15
256.26	148.56
710.84	141.52
1113.2	128.13
1373.5	110.32
1462.5	90.449
1407.9	67.742
1294.2	42.942
1227.2	18.974
1244.4	21.541
1275.6	44.418
1226.8	65
1050.7	78
754.21	80.777
392.92	74.686
142.69	61.4
357.69	44.688
557.14	28.443
642.97	18.439
637.66	16.125
592.6	19.849
573.87	26.42
597.42	33.541
628.5	41.773
628.61	46.325
592.33	45.486
534.18	38.833
481.51	28.071
455.27	19.026
451.24	19.647
459.37	25.318
465.7	28.862
462.77	26.87
444.14	20
411.42	15.652
404.77	19.799
457.56	26.019
553.08	29.206
637.81	26.926
665.92	20.025
624.55	9.0554
526.17	10
433.34	19.209
437.66	25.554
525.42	27.295
608.07	24.515
624.86	17.889
562.86	12.53
445.45	10.198
328.67	11.18
281.51	10.44
307.9	7.2801
324.38	6.0828
315.75	9.8489
315.77	13.038
374.16	13
464.62	7.6158
529.31	7.0711
527.36	18.385
449.94	31.78
307.94	42.45
165.47	48.083
185.13	47.854
310.34	41.231
403.5	29.547
443.13	16
441.47	2.2361
423.7	11.705
410.79	20.025
398.32	23.259
370.66	21.26
323.13	16.155
270.42	10.198
253.4	5
274.4	8.0623
294.16	14.318
280.4	17.889
223.23	21.213
137.64	21.932
87.818	21.024
147.03	18.385
215.03	13.601
250.57	9
250.45	5.6569
231.19	4.4721
210.54	4.1231
197.2	2
176.67	2.2361
152.2	5.831
138.6	11.402
157.08	14.56
196.02	16.125
219.39	16.125
209.95	14.866
203.16	13.416
250.3	12.042
348.61	9.4868
306.57	36.688
330.19	38.275
872.11	38.21
1384.5	38.275
1745.3	39.925
1870.3	41.437
1733.2	40.792
1422.1	35.228
1260.5	24.166
1672.2	9.8995
2459.6	20.248
3263.4	42.379
3871.7	63.781
4165.6	81.253
4086.8	91.984
3646.1	96.4
2911.4	93.15
1999.5	84.853
1052.6	73.756
279.33	61.911
543.44	50.329
905.36	37.162
995.2	25.179
836.3	14.036
518.48	7.2801
226.5	8.4853
365.72	11.18
568.69	10.44
613.6	11.045
475.65	18.028
247.07	28.16
364.59	36.125
738.5	40.162
1073.2	38.471
1287	31.064
1354.9	19.799
1296.7	14.318
1158.2	21.213
1003.9	31.016
876.34	36.069
768.12	34.54
658.82	27.019
570.58	16.492
578.17	9.2195
696.5	16.401
828.4	24.698
877.41	28.16
797.75	26.401
585.36	20.881
287.18	13.892
194.62	11.045
473.27	14.422
692.08	18.028
770.2	22.804
693.79	29.155
496.77	38.419
281.02	46.573
289.55	52.393
452.03	51.624
544.35	47.074
537.01	39.357
519.4	31.321
632.71	27.459
858.24	27.893
1059.6	31.575
1126.8	39.812
1005.5	57.489
689.01	83.726
237.89	113.28
361.91	140.12
872.55	159.62
1266.9	167.76
1465	161.45
1431.6	141.51
1180.2	109
789.48	70.178
455.95	28.231
573.96	11.045
882.4	42.45
1078.8	64.537
1094.8	76.322
942.69	77.389
680.33	70.064
412.32	58.412
277.91	45.222
299.82	32.558
285.02	22.825
155.66	21.633
67.007	27.659
321.86	34.928
541.08	42.059
664.86	44.822
654.25	43.186
514.66	37.59
309.23	28.653
298.61	17
536.3	5
751.56	9.4868
852.78	18.601
809.14	24.166
642	27.166
407.41	27.203
276.37	24.166
405.35	21.024
566.08	17.889
637.57	14.866
597.33	12.649
472.37	10.198
317.59	7.0711
236.35	4
279.83	2.2361
331.36	6.0828
328.84	9.434
274.85	12.369
221.36	14.213
229.32	14.036
284.4	13.038
312.75	9.8489
294.64	6
227.71	3.1623
132	4.2426
39.812	5.831
39.319	6
59.405	3.1623
36.069	2
51.971	9.8489
139.18	18.601
226.32	27.074
288.04	34.482
306.81	38.471
284.49	39.205
228.65	36.235
166.38	30.364
114.16	23.087
83.006	14.422
51.662	7.2801
27.659	4.1231
83.193	6.0828
150.6	7.6158
198.91	7.8102
208.4	8.0623
168.24	9.0554
90.802	8.544
33.615	7.6158
131.64	7.0711
217.22	10.44
257.15	15.652
245.51	20.224
182.62	22.672
91.984	21.84
50.931	19.416
122.8	14.422
165.95	7.8102
163.59	7.2801
119.57	10.198
84.386	13.416
133.69	13.454
203.25	11.705
236.35	9.0554
216.07	7.0711
139.01	8.2462
27.166	10.05
113.65	12.207
236.78	12.649
324.61	13
356.07	13.416
952.4	32.249
757.84	34.234
615.04	32.573
992.02	27.019
1571.2	19.416
2006.1	14.765
2123.8	13
1870.5	14
1358.6	15.62
1177.4	21.587
1900.5	33.615
2909.9	48.508
3752.3	63.032
4224	74.33
4232.8	80.808
3789	81.056
2987.7	76.026
1990.3	67.365
974.89	58.249
193.06	51.894
570.94	47.802
871.64	45
889.99	40.162
693.68	32.016
398	22.361
181.8	15
263.01	18.028
341.23	26.476
315.84	33.541
239.38	37.202
278.3	36.249
436.42	32.14
598.95	25
725.23	17.088
813.36	9.2195
867.95	2.2361
882.7	3.6056
840.39	8.0623
731.4	9.8995
564.65	11.402
386.65	12.649
295.06	12.728
326.1	12.369
368.52	10.77
351.41	7.2111
308.72	2.2361
342.54	5
463.58	13.454
576.78	22.804
606.43	30.364
524.02	36.125
338.18	38.833
203.94	37.643
418.25	31.89
714.68	26.42
953.2	22.472
1082.4	23.537
1083.4	27.295
957.42	32.016
723.41	36.878
423.29	42.544
150.08	48.703
337.78	54.708
632.92	57.489
870.77	55.785
1013.4	51.01
1064.9	53.151
1058.4	69.871
1067.9	98.412
1151.9	129.63
1297.5	154.02
1422.1	168.32
1446.6	167.59
1316.7	151.34
1026.3	120.49
617.61	80.212
293.55	36.497
559.02	19.849
946.41	51
1205.4	75.644
1281	86.977
1166.8	85.913
888.95	74.095
515.78	55.036
152.32	36.401
308.87	27.295
568.34	34.234
700.13	42.953
694.64	47.202
566.19	48.094
352.8	43.909
107.04	36.249
127.63	27.295
305.91	17.804
403.74	9.2195
417.83	8.2462
360.6	12.649
258.31	15
180.01	15.264
194.64	13
249.72	10.817
269.14	15.62
231.35	24.166
139.22	30
15.556	33.541
134.33	31.623
253	27.074
325.68	18.358
337.22	8.2462
288.09	4.4721
191.64	12
72.78	16.643
48.083	18.358
131.1	17.117
169.62	13.342
163.17	9.4868
131.03	8.2462
135.65	8.0623
186.08	9.4868
234.56	9.434
249.82	7.0711
224.66	4.4721
172.68	1
136.49	5.6569
157.11	10.817
201.23	17.263
224.63	22.804
220.38	27.659
204.94	31.385
200.39	33.242
214.23	32.202
219.22	30.083
195.17	25.318
133.45	20.616
63.506	15.811
112.07	10.198
202.71	7.0711
265.56	4.4721
278.22	4
239.4	4.2426
157.89	6.0828
72.993	8.0623
101.52	10.198
175.85	13.601
213.77	17.117
203.03	19.105
149.57	20.224
70.093	19.235
42.485	17
111.02	13
157.54	8.9443
173.01	4.4721
153.45	5.099
119.85	8
86.215	9.8489
67.186	9.2195
58.138	6.3246
45.122	3.1623
35.44	4.1231
41.629	8.544
50.961	12.728
40.05	15.524
20.125	16.279
75.027	15.264
152.43	12.806
225.7	11.662
888.06	20.591
393.3	25.554
338.37	27.019
1028.7	25.807
1613.9	21.19
1932.4	16.279
1884.2	10.296
1443	9.4868
654.93	17.088
451.6	29
1564.5	43.174
2615.7	55.66
3425.6	67.268
3878.7	73.98
3922.9	75.432
3577.8	72.471
2921.7	65.368
2089.5	56.294
1230	49
518.96	44.553
383.58	43.012
640.63	41.677
751.83	38.21
708.65	32.45
607.63	25.08
542.9	17.889
531.21	15.556
506.72	21.633
432.44	29.206
368.99	36.401
460.35	41.11
671.01	42.048
874.25	38.484
1000.3	31.145
1011.4	19.313
906.28	6.3246
706.97	8.0623
453.28	19.647
192.09	26.173
36.056	28.302
188.28	24.413
252.64	17.72
232.86	9.4868
162.24	8.0623
156.02	14.318
272.87	17.205
400.76	16.971
487.31	16.279
511.52	19.849
472.84	27.803
388.02	34.482
301.11	38.639
286.25	38.288
386.23	33.242
538.59	26.926
689	18.358
808.87	10
867	5.831
842.33	16.401
717.77	32.249
494.43	49.659
193.54	65.734
150.01	77.104
480.28	79.202
755.04	70.838
931.9	54.12
1014.8	44.204
1038.2	62.37
1083	97.005
1202.9	132
1374.9	157.51
1509.1	169.62
1530.2	165.71
1392.5	146.77
1097.5	114.4
708.81	75.961
452.52	37.162
659.83	20
1004.3	41.11
1239.5	60
1293.6	70.036
1160.9	70.612
871.66	65
483.36	56.569
102.2	48.6
327.44	43.267
595.13	43.046
724.6	45.188
713.14	48.508
576.01	50
356.12	49.041
105.08	44.407
145	35.228
320.21	25
413.24	13.153
419.53	7.0711
353.07	12.649
259.67	17
213.1	18.385
251.62	16.125
301.89	13.416
306.28	13.601
247.41	17.889
134.95	22.361
9.2195	24.042
154.29	24.083
272.02	21.095
339.44	17.205
344.91	14
290	12.207
190	13.601
73.573	13.892
42.521	13.038
115.11	10.63
136.69	7.6158
106.67	5
51.614	2
94.557	1.4142
182.7	2.2361
246.03	2.8284
261.14	3.1623
221.05	3.6056
138.08	4
87.693	7.0711
172.31	11.045
277.48	16.125
346.56	21.095
364.64	26
332.36	28.653
259.76	30.232
168.67	29.428
83.199	27.659
39.013	23.854
65.192	22.023
89.471	18.385
115.25	17.117
142.41	14.56
167.63	11.402
178.84	7.2801
170.79	4.2426
140.12	5
98.671	8.2462
58.009	11.402
27.295	13.601
5.831	15
19.235	18.028
51	19.026
82.329	19.698
99.328	18.439
92.542	15.524
58.822	10.198
40.497	5
100.26	1
170.99	6.3246
222.3	9.2195
236.07	10.198
206.71	7.6158
142.44	3.6056
51.157	2.2361
46.615	7.2801
120.17	12.042
162.11	15.297
162.25	16.155
141.85	14.866
145.88	11.402
196.29	7.0711
739.81	3.1623
311.95	11.18
682.02	21.378
1314.9	29.411
1797	34.67
1989.3	35.693
1813.3	31.064
1297	26.173
707.53	27.074
1078.9	38.21
2025.6	54.452
2880.5	68.884
3440.7	78.102
3612.6	80.777
3401.8	76.942
2886.7	66.038
2223.3	51.4
1610.5	35.847
1216.5	25.08
1031.2	24.698
852.55	27.731
542.87	30.265
116.39	28.46
366.99	23.345
753.92	15.133
962.83	7.8102
943.27	7.2111
712.55	12.649
388.57	15.62
400.64	17.72
721.17	18.028
942.72	18.974
961.47	20.809
777.64	23.022
487.94	23.345
421.75	22.472
701.17	18.028
951.13	13.342
1022.8	10.05
893.11	13
607.36	18.358
309.9	21.541
393.01	22.804
647.28	19.209
785.04	14
770.32	6.4031
671.73	3.1623
660.68	6.7082
826.48	6.3246
1046	4.1231
1196.3	10.296
1222.8	21.84
1140.3	35.114
994.42	44.822
840.19	49.82
697.8	45.607
534.95	35.228
316.36	22.361
43.829	28.16
280.74	52.086
548.4	75
706.27	90.907
701.6	96.151
528.26	87.207
318.64	66.94
552.87	42.45
1040.4	38.897
1515	69.354
1877.4	104.39
2070.1	132.22
2087.4	148.6
1954.2	151.65
1731.1	143.13
1495.4	123.57
1315.5	97.453
1210.3	69.721
1156	45.277
1087.2	31.064
970	33.287
792.33	43.566
563.8	52.01
316.2	55.946
130.68	54.452
209.83	47.676
324.24	36.77
352.08	26.926
291.49	24.083
200.82	31.064
262.38	40.2
444.88	45.88
613.18	47.011
702.87	43.267
698.55	35.44
611.82	26.077
504.23	17
460.18	12.166
499.51	11.18
546.3	11.662
530.5	11.402
444.02	10.63
332.03	10.63
326.96	13.038
446.43	15.811
566.28	19.849
612.41	23.601
570.01	25.632
458.7	27
341.53	24.698
302.08	21.213
339.44	15.524
361.18	9.8489
315.73	6
199.68	7.2801
42.953	10.296
126.65	11.662
257.09	11.045
326.73	9.2195
321.18	6.7082
252.04	5.099
155.93	5
107.38	6.0828
152.16	9.0554
191.69	11.18
195.16	14.318
181.22	16.971
199.72	19.313
254.66	22.091
302.95	23.854
314.4	24.187
277.2	24.083
206.47	22.472
136.57	20.518
125.42	18.358
162.93	17.464
187.42	16
187.67	15.524
180.83	15.811
191.23	14.422
211.06	12.166
215.13	10.44
179.2	7.8102
107.34	7.0711
33.541	6.7082
106.67	7.2111
183.7	9.2195
221.82	12.166
207.62	14.422
149.57	16.643
89.269	17.263
121.1	15.811
197.8	12.728
248.2	8.544
255.2	4
225.14	1.4142
182.47	5.831
168.37	8
185.61	8.9443
200.87	7.6158
182.32	4.4721
125.9	4.1231
41.773	7.0711
53	10.817
133.42	13.038
185.33	14.142
203	12.369
184.09	9.4868
493.78	3.6056
781.78	23.409
1199.6	41.869
1518.3	53.935
1650.5	55.027
1564.9	45.967
1308.2	26.926
1053.7	6.7082
1155.3	28.636
1648.8	54.083
2238.9	71.694
2733.2	80.156
3027.1	76.655
3077.6	65.62
2884.6	50.567
2489.4	36.359
1968.8	31.765
1441.4	33.838
1048.3	34.828
907.87	30.364
930.41	22.204
917.01	11.18
780.62	5.3852
535.94	12.207
334.8	18.028
474.22	22.023
754.91	24.021
966.88	26.173
1058.2	28.071
1032.4	29.069
933.26	27.019
818.3	22.627
726.64	17
642.68	9.8995
521.6	2
379.53	5
400.68	13.038
651.77	19.849
944.02	25.08
1151.5	28.601
1211.8	28.284
1108.7	24.839
892.18	21.378
715.92	22.804
795.92	27.659
1064.6	32.062
1310.5	31.623
1432.7	24.352
1423.3	10.198
1344.1	8.4853
1293.5	28.862
1331.9	45.88
1405.4	57.983
1406	60.44
1257	53.935
940.03	37.443
497.69	15.556
181.47	15.62
577.91	40.311
939.91	61.465
1119.6	76.059
1086.1	79.624
870.87	74.33
621.35	58.873
702.81	37.216
1114.9	14.765
1551.8	28
1883.1	56.569
2050.1	82.735
2045.1	104.06
1898.6	118.68
1662.1	125.04
1400.6	124.89
1171.5	116.73
1006.5	105.34
900.79	91.198
828.08	74.793
754.81	59.682
672.46	47.011
587	37.643
505.35	33.377
433.02	30.887
368.51	28.178
310.36	24.021
258.02	16.553
215.52	8.6023
189.86	4.4721
194.49	9.8995
225.72	15
276.29	17.889
335.02	21.19
386.7	24.515
426.62	29.017
444.11	31.623
428.03	32.016
383.01	27.785
315.77	20.224
246.05	10.05
210.29	4.2426
230.78	11.705
278.24	16.279
313.38	17.72
326.17	15.652
319.9	13.342
312.7	13.601
320.14	16.763
343	19.416
362.68	20.1
363.52	17.464
337.02	13.928
281.3	14.56
202.56	18.385
111.65	21.26
32.558	21.541
74.686	18.248
141.79	11.402
192.67	5.831
218.33	8.4853
218.82	13.038
192.68	16.279
145.09	17.029
99.403	14.213
111.32	11.18
175.84	8.6023
241.62	6.0828
287.95	4.1231
302.73	7.8102
285.49	14.866
240.35	22.204
176.82	28.018
102	31.305
31.064	30.017
29.12	24.698
68.411	18.028
84.38	13.928
79.712	17.263
60.745	22.847
55.714	26.173
84.433	26
126.4	21.024
160.56	14.318
176.07	7.2111
170.82	5
147.15	8.0623
108.3	9.4868
65	10.296
30.414	9.8489
27.459	11.18
35.228	14.422
33.838	15.811
34.132	16.279
61.27	13.601
96.167	10
127.76	5.831
146.89	4.2426
150.63	5.3852
142.79	7.2801
126.21	9.8489
117.43	10.817
111.8	12.728
104.24	13.416
89.872	14.142
57.871	11.402
11.402	8.6023
46.872	4.4721
108.63	1
1359.3	32.757
1570.8	48.703
1705.4	57.009
1691.4	55.227
1536.2	44.407
1314.5	25.554
1154.7	7.8102
1162.8	24.839
1305.8	44.045
1502.5	56.798
1730.7	61.221
2005.7	58.241
2313	51.01
2591.5	43.174
2742.4	38.626
2685.5	36.359
2378.3	33.242
1836.4	26.926
1135	20.248
453.58	13.928
559.5	13.038
1056.5	14.422
1346.8	15.524
1365.9	13
1155.2	10.198
871.67	9.2195
844.08	11.705
1159.2	16.279
1506.1	22.204
1691.7	28.653
1651	32.696
1385.5	33.956
963.41	32.016
530.07	24
472.17	12.042
785.32	6.0828
1050.7	16.492
1161.7	26.077
1122.1	29.833
977.88	29.411
812.02	29.069
712.4	33.242
720.65	42.72
782	51.196
832.54	53.712
846.28	48.104
834.56	34.928
842.67	19
911.96	22.561
1053.4	40.162
1226.3	55.714
1371.2	61.294
1431.2	58
1370.3	44.654
1172.7	26.249
857.82	9.434
496.97	17.263
350.29	30.414
602.43	37.014
871.6	39.56
1013.7	40.447
1003.9	44.045
884.37	46.819
803.27	44.553
941.85	35.171
1271.3	21.401
1630.2	23.345
1915.2	48.27
2068.2	75.743
2073.3	97.293
1947.8	109.38
1727.6	112.45
1460.7	106.68
1196.8	97.015
969.72	90.05
795.52	89.443
684.72	90.802
620.97	90.51
586.05	83.934
571.35	70.349
550.28	51.039
510.57	29.732
445.94	10.817
362.41	10.44
271.59	18.028
193.83	20.248
142.47	16.125
127.91	7.6158
158.14	5.6569
222.79	14.866
301.94	22.561
378.72	26.926
436.55	27.459
466	26.077
457.67	22.627
418.54	18
360.92	12.728
305.84	8.0623
273.77	5
275.53	6
292.45	9.2195
311.68	12.042
327.39	13.416
336.82	14.213
346.56	14.318
352.24	15.133
348.46	16.125
330.81	17
298.11	16.971
254.61	15.652
205.2	14.142
154.32	12.042
105.42	11.705
66.708	11.662
67.007	11.402
111.5	10.198
162.37	7.6158
203.34	5.099
222.95	6.0828
221.54	9.8995
203.18	13.038
183.83	16.125
189.86	17.889
227.76	16
270.01	13
295.8	8.9443
291.57	9.0554
258.59	14.142
198.17	20.125
125.54	25.612
56.515	26.683
37.121	25.962
63.325	21.26
66.603	14.318
46.957	6.7082
7.6158	7
52.402	14.142
103.09	20.248
141.88	23.324
158.22	23.022
152.2	18.788
127.28	12.806
97.185	5.831
79.101	5.099
85.094	12.042
99.624	17.088
103.32	19.849
89.989	20.224
68.096	18.385
51.478	14.422
65.307	10
93.6	5.6569
112.27	2
120.42	1.4142
117.07	3
108.85	3.1623
106	3.1623
115.95	4.4721
129.19	6.4031
135.07	8.0623
128.16	10
102	10.296
61.555	10.296
27.803	8.0623
68.6	5.6569
126.37	2.2361
1788.3	48.052
1791.1	52.498
1730.6	50.16
1642	41.881
1580.3	28.636
1579	19.209
1609.9	21.401
1613	31.064
1545.5	38.471
1453.1	42.802
1465.1	43.966
1689.8	43.012
2067	42.202
2434.3	40.706
2649	36.797
2626.3	31.064
2332.7	23.259
1797.1	17.889
1089.7	17.804
322	20
428.84	20.616
1011.3	17.263
1383.8	12.042
1521.9	8.6023
1455	14.422
1260.7	21.213
1061.1	26.833
982.01	28.071
1034.8	27.203
1115.6	24.207
1136.4	21.095
1064.9	17.263
908.39	14.866
685.31	12.207
424.7	11.402
230.01	10.77
394.46	9.434
711.86	8.2462
1006.4	11.18
1218.5	19.647
1306.5	32.249
1254.5	43.324
1084.7	52.202
872.4	55.073
767.77	52.173
878.51	45.651
1096.1	39.446
1284.8	41.11
1377.5	49.739
1369.8	57.871
1278.7	61.717
1144.5	59.481
999.51	52.773
854.55	44.777
710.55	38.639
582.83	36.797
516.27	34
555.2	27.803
658.27	17.464
753.64	8.6023
810.66	18.682
848.86	30.414
927.11	38.639
1099.5	41.881
1347.1	43.29
1616.9	48.166
1847.1	60.531
1993.1	74.411
2034.9	84.481
1966.1	87.846
1804	84.9
1581.4	76.922
1342.1	71.84
1134.2	73.98
996.98	82.024
928.9	89.844
899.18	91.837
851.4	87.658
766.54	77.201
636.23	64
479.32	50.22
317.04	40.311
182.6	31.064
122.59	21.213
153.18	11.402
211	4.1231
269.56	12.728
325.16	18.358
371.19	20.396
395.89	16.031
393.93	9.2195
368.77	14.213
336.79	26.249
314.1	36.688
314.73	41.437
320.44	38.601
322.54	29.547
313.64	16.279
305.06	3.6056
313.96	14.866
346.44	25.71
390.93	31.321
427.83	29.732
443.68	23.259
435.02	15.811
398.99	12.207
342.65	17.029
277.74	21.471
210.95	23.087
161.44	20.248
139.52	14.866
144.25	8.0623
153.39	3.6056
155.56	6.0828
150.21	8.0623
144.31	7.2801
147.14	5
166.36	7.8102
190.88	13
214.83	17.804
232	19.925
241.03	19.416
245.31	16.401
244.37	11.662
241.13	7.2111
232.8	6.4031
221	10.296
201.96	13.454
177.88	16.125
143.39	18.248
102.83	19.416
53.824	18.601
14.318	17
44.147	13.038
82.765	7.2111
109.11	2.2361
124.34	8.0623
129.45	15.033
127.39	20
117.69	22.472
97.082	21.587
68.096	17.692
30.017	10
30.017	4.1231
74.431	10.44
113.51	17.493
140.46	23.022
148.5	23.854
135.82	21.471
109.81	16
74	9.4868
36.056	4.1231
15.033	5.831
40.792	7.2801
72.014	7.2801
102.16	5
125.57	2.2361
139.52	6.7082
136.03	11.18
115.38	13.454
81.841	13.928
44.147	11
28.018	8.2462
36.069	5.099
31.016	5
2.8284	6.0828
1631.3	44.643
1737	43.463
1868.2	39.395
2103.5	36.249
2401.1	34.928
2631.5	38.013
2654.9	41.976
2388.2	43.863
1815.3	42.438
1047.2	37.483
672.16	30.265
1398	25
2222.6	24.352
2800.6	25.554
3020.5	26.173
2858.2	23.77
2364	18
1653	10.77
874.95	3
334.08	6.3246
620.95	11.402
932.71	12.083
1034.8	10.05
968.03	5
862.11	5
871.45	11.402
1017.6	18.111
1194.3	23.409
1319.6	25.495
1378.7	25.495
1380.5	24.187
1346.4	21.378
1286.4	18.788
1206.9	16.279
1118.9	12.53
1022.9	7.2801
912.91	2.2361
772.31	5.831
587.82	13.342
376.55	22.136
293	29.069
499.37	35.128
788.01	40.817
1060.2	44.598
1293.2	47.17
1495.5	48.301
1670.4	48.384
1801.8	48.754
1848.5	50.16
1761.8	52.202
1517.2	57.454
1122	61.612
622.07	65.368
165.68	63.906
469.18	58.523
836.46	47.508
1049.7	33.956
1115.5	18.385
1103.7	10.77
1129.4	16.155
1279.3	22.023
1526.8	26.173
1795	31.385
2023.4	42.72
2190.7	58.052
2279	74.706
2258.6	85.884
2106.8	90.089
1811	86.452
1414.3	76.217
1053.6	62.241
993.14	53.759
1264.6	55.66
1575.1	63.953
1735.9	71.253
1671.6	73.926
1395.8	70.178
954.05	62.129
440.22	53.852
96.509	48.27
458.15	47.17
690.08	46.69
762.36	43.909
701.72	37.202
573.78	26.306
452.77	13.928
369.54	2
288.39	7.6158
213.6	14.56
270.65	17.205
461.05	17.117
652.33	15.811
775.84	16.763
788.97	18.788
690.08	20.881
498.71	22.804
270.31	21.095
51.624	18.788
107	15.264
175.39	11.045
180.94	8.4853
235.61	7.0711
382	7.8102
547.65	9
665.2	8.9443
698.22	7.8102
630.1	5.831
477.91	5
277.72	6.7082
72.236	10.817
96.187	13.601
200.12	15.524
229	15.033
210.8	12.649
198.73	9.8489
237.36	9.4868
294.61	11.705
323.39	15.264
303.95	18.028
247.29	18.111
176.28	16.553
133.51	13.892
150.28	10.198
187.38	6.7082
226.64	5
267.82	5.831
305.53	8.0623
325.73	10
317.65	11.402
261.08	12.083
167.84	13.038
66.731	13
99.85	11.662
190.03	11.18
244.63	10.05
250.14	9.2195
208.19	8.0623
136.12	8.4853
63.789	10.05
55	11.402
86.348	14
98.112	14.213
81.908	14.318
60.531	13.038
57.271	11.045
65	11.402
60.415	13.342
40.853	15.264
51.865	17.117
99.705	17.029
143	13.928
161.25	10.05
149.83	6.0828
113.95	5.3852
86.023	8.9443
107.79	12.166
148.68	13.601
170.39	12.806
160.38	10.05
119.85	6.4031
60.008	4.1231
33.615	4
68.25	5
81.216	5.099
61.074	4
5.3852	3.1623
2045.3	35.384
2311.8	39.051
2563.8	44.045
2803.8	50.488
2951.6	57.628
2904.6	61.008
2590.1	60.605
2005	52.498
1208.1	39.56
447.66	23.345
876.15	8.6023
1656.3	13.928
2250.3	25
2574.3	30.529
2626.3	30.463
2437.1	25.962
2062.3	17.889
1572.3	12.207
1020.9	10.77
464.81	12
186.69	12.207
586.17	11.705
923.98	11.18
1119.7	11.314
1172.9	12
1133.5	9.8489
1091.4	7.6158
1127.8	11.045
1232.1	18.385
1321.2	25.456
1336.1	29.12
1284.9	28.636
1240.7	24.083
1278	16.155
1387.2	6
1473.1	3.1623
1449	8.2462
1269.3	10
948.22	9.0554
542.69	13.416
189.5	23.77
395.01	35.355
762.85	45.607
1127.4	51.546
1511.5	53.759
1907.2	51.971
2257.7	50.695
2483.6	51.884
2514.3	55.66
2310.1	59.682
1881.6	62.394
1287.7	62.37
680.01	58.241
581.82	52.202
1054.9	44.045
1490.2	36.014
1756.7	28.425
1848.7	23.022
1832.4	19.105
1805.2	14.318
1862	10.05
2021.8	15.133
2209	30.887
2336.3	50.99
2321.8	70.007
2133.6	86.122
1791.1	94.255
1369	93.338
1055	82.873
1085.8	64.008
1367.9	43.566
1632.3	34.132
1735.7	44.385
1636.9	59.076
1360.4	67.186
986.19	66.287
660.13	56.851
576.06	46.141
696.09	39.962
776.11	43.267
729.72	50.567
563.51	54.452
343	52.393
247.52	43.267
374.79	30.61
494.58	17.493
521.05	11.662
450.54	15.297
300.1	18.974
114.11	19.723
90.427	19.209
249.35	19.105
375.05	20.591
467.58	21.213
535.8	19.313
575.03	17
571.96	16.125
517.14	18.111
410.47	22.672
264.2	25.495
122.78	25.08
157.95	20
291.93	13.342
401.53	6.0828
468.74	6.7082
494.54	11.662
483.54	14.213
439.14	13.342
362.71	11.045
255.76	7
133.45	6.7082
24.083	10.77
122.18	14
205.14	14.318
247.32	12.042
243.85	7.2801
203.09	3.6056
148.22	6.3246
108.78	11.402
113.32	14.866
161.44	16.763
228.89	17.205
303.15	15.133
373.13	13.038
410.8	11.705
403.89	11.18
343.42	11.314
229.73	12
88.363	12.728
66.068	12.166
188.09	10.77
261.02	9.8995
271.06	8.0623
221.1	9.2195
137.88	10.05
115.87	10.817
203.71	12.083
287.7	12.369
335.29	12.207
335.26	12.369
309.59	11.662
283.35	12.369
283.92	14.422
313.68	14.142
347.21	15.556
371.55	15.133
383.27	14.765
385.5	13.892
373.7	13.038
344.4	10.63
302.22	9.2195
268.49	6.3246
274.4	3.6056
318.5	0
370.07	3.1623
391.81	6.7082
370.17	9
308.56	10.817
228.19	11.18
175.93	11.045
193.33	9.2195
241.22	6.7082
266.32	4
268.94	2
257.29	2.2361
246.47	3.1623
2030.5	43.267
2607.2	51.352
3039.7	56.586
3258.4	60.299
3229	60.033
2934.8	55.462
2398.9	48.26
1674.1	37.443
835.41	26.627
32.558	16.553
837.16	12.207
1514	14.142
2005.4	17.804
2284.3	20.248
2343.5	21.024
2203.9	19.647
1898.6	18.601
1483.5	16.125
1025.1	11
595.5	5
271.32	4
191.66	10.817
294.11	17.029
421.34	20
608.76	20.248
849.85	18.248
1087.7	12.806
1276.5	6.4031
1379.3	6.0828
1392.3	12.166
1337.4	18.439
1245.8	22.561
1145.8	24.166
1051.5	24.166
968.5	21.19
928.9	17.088
957.33	13.601
1037.7	11
1095.3	8.6023
1051.4	4
844.1	5.3852
463	17.263
85.884	30.414
718.28	45.398
1384.5	59.059
1994.4	67.978
2472.6	72.993
2761.9	72.835
2833.9	68.469
2688	60.539
2346.2	52.555
1883.7	45.88
1445	41.231
1284.1	37.656
1528.8	36.878
1939.8	38.833
2287.3	41.049
2489.4	40.447
2539.1	35.44
2511.5	23.345
2494.5	4.4721
2528.6	19.647
2566.4	46.011
2494	70.838
2231	89.107
1762	98.6
1175	97.509
812.3	85.006
1098.5	64.475
1589.2	39.699
1907.1	19.235
1944.6	24.739
1699.2	39.459
1256.1	48.508
797.36	49.193
679.85	43.186
923.15	34.828
1114.8	28.32
1096.6	30.48
869.01	34.655
491.42	39.408
167.29	40.853
442.24	38.328
716.41	34.132
826.53	29.12
759.13	24.597
539.28	19.416
247.66	12.806
156.35	7.6158
392.2	8.2462
557.66	14.318
612.79	19.647
569.64	24.021
468.34	26.571
349.81	27.803
258.82	26.926
208.71	24.515
194	21.587
206.52	17.692
228.54	14.318
245.33	11.18
244.05	9.2195
246.33	8.6023
292.7	8.0623
388.91	6.4031
487.64	4
544.03	3.1623
530.86	4.1231
445.75	5.3852
302.01	5.831
134.12	4
78.816	1.4142
183.62	3.6056
242.85	6
237.01	8.9443
182.78	8.6023
107.7	7.2801
41.11	3
5.3852	4
47.381	10.198
143.84	15.811
271.11	19.235
400.78	21
497.35	19.723
529.46	16.553
479.76	11.402
352.09	8.2462
171.48	9.434
36.125	12.369
209.06	14.142
326.14	14.866
364.16	13
314.53	11.18
206.37	11.18
100.18	12.369
175	14.765
294.85	16.279
367.7	15.524
371.11	13.928
317.16	11.18
223.43	10.296
136.89	11.18
142.64	14.422
214.73	16.553
275.75	18.028
305.24	17.889
303.66	17.029
273.03	15.811
217.8	13
162.79	10.77
155.63	7.0711
209.17	4.1231
274.77	0
316.8	3.1623
332.78	6.4031
322.69	8.0623
308.89	8.0623
306.47	8.9443
313.95	8.2462
316.73	8.6023
296.97	8
264.58	7.2111
254.16	5.831
284.88	3.1623
339.45	2.2361
378.65	3.6056
2414.9	47.508
3071.8	57.315
3453.1	63.253
3514.6	64.846
3261	61.66
2743.3	53.254
2039.9	43.267
1249.4	32.573
475.37	24.331
349.18	19.105
917.9	15.033
1371.8	11.18
1679.6	11.18
1848.3	15.264
1889.5	20.248
1824	24
1674.5	22.825
1470.9	19.235
1229.9	12.649
988.23	9.0554
769.05	13.153
606.18	18.028
508.42	20.616
455.57	19.105
412.53	13.892
415.74	8.6023
557.77	7
819.91	11
1121.7	14.56
1379.2	15.62
1536.2	14.318
1558.2	13
1446.8	10.77
1236.4	9.2195
984.94	10.198
762.48	13
636.73	16.643
624.52	19
683.67	19.235
756.64	17.804
778.07	13.892
676.71	14.213
398.03	22.804
84.119	35.44
744.96	48.508
1511	60.208
2266	68.264
2880.6	74.626
3241.1	77.833
3276.1	78.16
2992.8	73.246
2497.3	63.506
2032	49.336
1928.3	34.986
2233.5	29.069
2643.9	35.777
2924.5	43.841
3022.2	45.541
2994	38.079
2930.6	21.954
2873.1	16.279
2776.1	38.588
2550.1	63.64
2137.2	82.976
1559.9	93.301
984.57	92.228
836.3	80.802
1192.4	61.774
1527.6	39.623
1635.6	21.095
1501.8	13.601
1205.4	18.028
925.46	20.809
866.4	20.809
985.95	22.472
1053	25.807
975.41	29.732
760.03	28.178
518.85	21.587
440.71	13
536.04	15.264
590.98	25.554
514.84	34.713
336.21	39.217
254.02	36.056
436.35	28.636
619.02	17.692
674.46	8.9443
574.88	10.05
331.21	13
69.181	11.705
368.11	4.2426
659.66	6.3246
836.09	18.111
872.59	27.459
774.92	33.287
593.89	34.525
402.61	31.575
320.21	25.495
370	20.248
430.25	18.028
442.67	17.804
412.7	15.62
363.98	10.77
320.35	3.6056
279.01	5.831
236.14	12.369
200.47	16.125
190.07	16.643
191.25	12.207
167.11	5.3852
104.29	4.4721
2.2361	11.705
118.51	16.031
220.41	16.125
267.08	13.038
238.84	7.0711
130.68	2.2361
76.479	10.296
272.81	17.029
468.09	20.616
605.48	21.26
652.49	19.416
596.14	15.524
449.52	11.314
245.06	7
31.623	6.4031
158.38	8.0623
270.93	10.63
295.51	14.318
239.49	16
130.05	14.866
30.48	12.806
110.89	9.8995
159.24	9.434
141.68	12.083
78.518	15.62
113.64	18.788
230.96	19.026
323.43	17.029
359.78	14.318
329.83	12.207
276.81	12.166
279.43	12.53
375.31	13.038
492.88	13.342
560.75	14.036
557.25	15.133
486.66	16.155
372.83	16.279
279.59	14.765
283.45	11.045
351.14	5.099
402.25	1
405.1	6.0828
361.29	11.18
282.45	13.416
192.59	13.454
102.18	13.416
54.231	11.402
96.835	10.05
164	9
221.78	7.0711
260.72	5
278.09	5.099
269.7	5.831
2176.8	57.628
2820.4	65.62
3273.3	67.417
3453.2	63.781
3321.1	54.818
2888.9	43.29
2218.9	31.78
1433.3	23.022
721.06	17.804
485.08	15.556
728.01	11.662
865.15	5.099
877.93	2.2361
996.86	9.434
1357.1	15.133
1804.8	18.028
2141.5	19.105
2245.2	17.464
2069.5	15.232
1636.7	12.53
1039.2	11.402
418.23	10.817
368.32	12.042
775.49	13.601
1028.2	13
1097.7	11.045
1018.1	7.2111
840.26	1
595.61	7
339.21	13.601
412.92	19.235
850.09	22.091
1333	22.472
1724.9	19.235
1919.6	14.036
1849.6	8.0623
1506.6	7.2801
948.68	11.045
352.68	15.811
543.37	17.804
1006.6	19.235
1212.8	17.72
1078.1	15.232
614.42	18.682
276.42	31.78
1091.3	50.931
1980.1	69.642
2741.1	87.321
3277	97.591
3548.2	98.494
3572	89.286
3420.3	70.036
3194.6	44.385
3013.2	16.031
2956.7	14.036
3047.7	33.956
3228.6	45.277
3394.5	47.096
3438.1	43.139
3292.9	39.294
2926.7	47.074
2384.9	62.008
1774.3	75.71
1282.7	82.462
1111.6	79.63
1173.9	69.462
1192.8	53.759
1041.2	37.443
761.03	27.019
567.97	24.207
719.24	24.413
981.25	21.213
1111.6	15
1037.7	11.18
773.63	16.125
392.14	23.022
175.09	25.08
468.24	23.345
686.29	18.028
734.7	11.662
616.3	11.314
380.12	15.524
121.2	19.209
178.21	19.235
324.01	16.279
348.35	12.369
257.62	13.153
93.648	17.464
102.16	20.591
239.13	20.616
301.14	18.974
288.09	16
280.64	13.342
384.76	11.705
541.09	13.038
652.2	13.892
659.83	15.033
554.28	16.279
348.86	16.279
108.72	16.553
192.61	14.422
381.7	12.166
485.81	9.0554
499.58	8.0623
467.49	8.0623
456.43	9.4868
493.54	8.4853
523.41	6.3246
489.32	2
373.12	2.8284
205	6.3246
156.68	9.2195
312.54	10.63
429.8	9.2195
441.62	5.3852
340.27	2
146.87	4.2426
132	8.0623
369.57	10.296
553.54	11.662
643.09	12
622.24	12.207
508.39	12.083
334.21	12.166
158.4	12.042
84.149	13.601
136.31	15.524
144	16.279
90.244	15.811
47.381	14.318
127.06	10.817
191.64	7.0711
203.67	4.4721
161.55	7.0711
97.514	10.77
120.62	13.454
209.33	13.416
271.46	13.038
287.22	13.153
255.98	12.083
203.31	13.454
165.19	14.765
160.16	16
164.44	17.493
184.79	17
253.84	15.033
371.11	12.207
489.53	8.9443
574.34	5.099
601.48	4.2426
565.78	6.4031
492.41	9.2195
430.93	10.77
421.73	9.8489
450.44	8.9443
459.78	10.05
414.25	10.63
314.4	12.042
184.69	12.728
69.116	11.18
76.322	8.0623
100.5	3.6056
65.031	1
56.569	3.6056
183.6	6.3246
317.4	6.3246
1151.5	54.562
1676.8	72.111
2457.8	81.099
3139.6	80.623
3531.1	69.354
3565.2	51.157
3267.2	27.803
2747.1	4.4721
2166.6	14.866
1666.7	27.203
1272.8	31.016
942.29	28.284
816.14	21.378
1213.7	19.026
1904.3	25.495
2559.1	33.615
2960.8	36.674
2981	33.956
2578.4	26.401
1810.5	16.031
898.09	5
745.5	4.2426
1508.4	9.4868
2069.9	13
2205.2	13.601
1868.2	15.033
1142.3	16.125
391.22	15.652
1059.9	15.033
1917	16.125
2458.7	19.416
2554.7	25.08
2186	28.601
1439.4	29.12
469.35	23.087
533.84	13.454
1349.1	4
1827.9	14.213
1887.5	25.632
1560.4	32.14
1038.9	32.65
881.06	27.586
1348.9	20.616
1793.5	25
1883	42.379
1524.6	61.221
803.32	77.897
755.67	87.207
1874.3	90.62
3009.2	87.115
3867.1	75.186
4340.8	58.941
4458.9	39.598
4409.9	18.248
4469.3	4.2426
4781.3	20.248
5183.7	32.28
5393.4	41.231
5166.6	47.011
4413.4	52.555
3180.6	60.008
1650.9	67.357
279.87	73.783
1381.5	76.059
2320.6	71.028
2712.9	60.836
2544.7	46
1973.8	30.083
1382.9	21.213
1422.9	24
1966	31.048
2376.5	33.971
2420.9	31.048
2090	24.597
1555.2	18.248
1194.9	15.264
1357.2	18.358
1705.3	21.587
1857.2	22.361
1708.9	20.125
1328.6	16.279
946.62	10.63
935.33	6.7082
1206.2	4.4721
1391.9	5.3852
1356.6	8
1140.3	10.296
931.58	10.817
981.97	11.045
1202.8	10.05
1345.7	9.2195
1279.5	11.045
994.63	14.318
586.93	18.358
353.78	19.849
614.29	20.616
879.38	20.1
962.81	19.105
870.58	17.72
714.24	17.493
698.09	16.279
864.69	14.318
1039.3	11.18
1094.9	7.0711
993.77	4
779.85	3.1623
563.25	3.6056
498.4	3.1623
583.6	1
649.07	2.2361
636.43	5
582.9	7.6158
571.5	8.9443
628.08	8.0623
686.69	5.831
684.61	5
627.91	6.7082
601.92	9.2195
692.83	12.53
861.49	13.416
998.01	13.153
1038.2	12.806
959.19	10.77
785.49	10
601.02	10.44
506.9	12.207
554.32	14.422
633.85	16.125
666.74	17.088
653.33	15.62
624.09	12.166
631.81	7.2801
676.78	2
723.87	6.0828
745.6	11.18
727.73	14.213
684.76	15.524
626.52	14
550.72	12.166
471.01	12.042
410.94	15.133
429.74	18.385
534.76	21.932
675.66	21.541
793.98	20.1
864.26	15.264
879.58	10.296
851.17	4
785.89	1
694.77	5
581.79	7.2111
435.33	8.544
264.25	8.9443
83.6	10.44
109.29	11.18
255.05	13
356.6	13.342
409.13	12.042
426.23	11.045
425.21	7.6158
421.63	4.4721
405.72	1.4142
348.83	2
238.58	3.6056
95.713	4.1231
139.29	3.6056
855.64	15.811
1003.1	29.967
1734.4	54.452
2505.5	75.432
3120.3	86.977
3499.8	85.446
3607.2	72.339
3439.4	52.202
3008.9	34.132
2331.7	37.59
1487.2	53.009
783.4	63.891
1183.2	66.611
2057.3	62.266
2761	57.306
3110.1	60
3037.4	67.119
2566.4	73.082
1804.4	70.661
973.9	58.873
654.49	42.202
1082	32.202
1416.2	40.804
1425.6	55.362
1127.2	63.159
621.07	61.327
88.119	51.662
481.86	42.521
850.49	45.277
1051.6	57
1152.4	67.941
1229.7	69.007
1301	59.414
1288.7	41.049
1116.4	24.739
757.73	30.806
251.19	46.69
291.6	56.143
748.29	54.644
1011.7	41.485
1059	21.401
1015	15.524
1164.6	38.288
1578.2	58.078
1994.9	69.354
2179.7	69.065
1986.2	60.415
1383	50
527.16	48.01
947.11	56.569
2143.7	67.535
3267.5	73.239
4196.5	71.063
4933.7	58.009
5544.1	41.11
6091.7	28.792
6535.5	38.471
6738.7	59.059
6548	78.447
5870.4	92.195
4741.8	98.412
3423.2	98.955
2532.4	92.005
2791.5	78.006
3628	58.6
4256.6	34.785
4391.1	11
4071.5	14.142
3557.6	33.242
3237.9	45.343
3340	50.359
3635.4	46.141
3782.5	35.847
3612.1	22.136
3165	9.0554
2669.3	8.9443
2425.1	14.036
2503.6	14.866
2656.2	10.77
2628.3	11.18
2359.1	20.025
1956.8	30.61
1657	37
1665.6	37.643
1847.3	32.558
1959.3	21.633
1877.4	10.77
1624.5	16.401
1308.9	28.018
1084.8	35.384
1014.7	36.497
999.82	30.017
925.49	18.682
786.73	7.2801
687.8	15.133
746.24	28.018
901.6	35.228
1004.6	38.184
996.45	34.132
869.26	25.612
668.86	16.031
473.25	11
370.42	15.133
379.14	19.849
399.25	22.204
373.73	22.472
287.58	19.313
152.97	17.263
20.224	17.029
200.02	16.763
368.23	15.811
499.77	13.601
557.81	10.198
523.05	9.0554
400.03	10.296
276.81	10.817
376.47	10.05
619.72	9.4868
832.77	11.402
956.07	16.553
950.88	20.881
838.38	24.166
671	24.187
545.17	21.095
536.2	14.422
597.56	7.0711
630.18	7.0711
609.45	13.038
579.77	18.358
594.46	19.235
670.48	17.263
742	11.402
758.22	6.4031
703.76	9.2195
597.77	14
494.16	17.029
440.57	16.763
427.87	13.153
411.26	7.2801
381.38	5.831
381.79	12.207
449.29	17.464
546.23	20.396
604.37	20.809
589.12	18.868
487.48	15.297
334.89	11
231.19	8.0623
307.92	7
446.79	6.0828
549.48	7.0711
609.2	8.2462
633.24	11
645.33	13
653.4	13.601
629.09	14
543.66	13.454
401.62	13.038
210.01	12.806
119.71	12.166
280.07	11.662
435.91	9.2195
516.55	6.3246
520.95	5.3852
451.44	7.0711
337.43	10.198
1594.4	18.248
1476.3	3
2708.3	25.02
4084	47.202
5070	65.146
5440.4	76.844
5110.3	80.709
4164.3	76.531
2809.1	65.605
1424.1	54.406
992.36	50.488
1716.8	59.076
2221.3	73.389
2232.9	86.163
1837.6	94.43
1257.3	96.799
926.27	93.941
1122.4	88.843
1395.8	84.959
1486.7	82.608
1436.4	83.648
1457.8	84.077
1668	85.159
1942	84.149
2101.8	84.723
2082.4	87.464
1955.4	91.81
1908.1	97.252
2061	100.45
2314.7	98.615
2468.3	92.114
2384	82.638
2022.2	74.33
1475.7	70.178
949.89	71.169
875.37	72.732
1212.2	69.065
1480.4	61.033
1510.3	51.624
1275	46.615
828.56	51.788
263.01	58.6
435.93	59.237
1026.4	49.659
1534	28.16
1897.8	5.099
2066.3	37.855
1982.2	70.214
1601.1	93.477
889.67	104.09
231.53	98.311
1501.4	78.447
2983.4	48.332
4494.7	15.232
5858.5	15.297
6909.4	33.121
7515.1	35.777
7620.2	22.023
7222.4	8.544
6430.8	47.043
5425.7	86.452
4495.3	119.01
3962.8	138.65
3970	138.95
4304.1	123
4634.5	93.381
4787.8	64.195
4720.4	57.706
4505	77.666
4232.6	97.082
4007.3	106
3869.8	104.06
3778.1	93.381
3669.4	82.462
3491.5	76.217
3247.3	74.813
2976	72.615
2738.2	70
2572.1	68.884
2462.5	72.422
2358	81.566
2227.4	89.202
2065.4	90.211
1910.5	84.646
1792.3	72.801
1718.5	63.127
1652.9	62.362
1533.3	67.186
1326.7	71.218
1039.5	68.066
753.92	58.138
591.28	45.88
638	39.051
746.46	42.048
789.45	48.877
714.08	50.99
537.48	46.043
307.59	33.541
114.81	19.105
204.36	10
369.01	17.205
525.71	23.77
687.4	24.187
850.68	19.647
989.14	10.77
1069.7	6
1064.9	12.042
996.7	18.028
944.11	20.881
992.32	19.313
1136.9	17.804
1289.5	17.72
1387.7	19.416
1401.9	21.213
1358.5	21.213
1327.4	17.889
1383.9	13.601
1502.9	12.53
1611.7	16.763
1639.7	23.77
1544.8	29.411
1348.6	32.249
1107.7	31.401
910.18	27.166
840.65	19.105
870.11	11.705
902.67	10.296
881.52	16.492
797.11	21.932
684.37	25.08
571.76	23.409
487.61	20.248
419.1	17
342.59	15.652
235.1	15.264
105.76	13.038
39.205	9.2195
140.04	5
205.1	8.0623
222.66	13
200.04	15.652
178.81	14.318
206.18	9.2195
270.2	2
333.4	10
384.44	19.235
413.76	24.166
433.62	24.597
458.02	20.616
479.14	13.928
508.84	10.77
540.23	17.804
556.86	25.318
545.2	29.069
500.36	28.071
418.04	21.633
288.17	13
143.56	3
37	5.831
171.29	11.045
279.87	12.728
336.26	11.045
334.26	8.2462
279.53	8.9443
183.17	12.806
73.926	16.031
1616.6	44.102
1841.4	24.698
2907.8	25.318
4044.1	50.774
4930.8	78.102
5394.2	97.908
5367.2	108.19
4866.2	109.2
4005.7	104.14
3050.9	97.509
2451.2	97.247
2542.6	103.48
2975	111.02
3212.4	116.28
3028.7	115.75
2379.8	110.65
1404.1	101.21
631.46	90.094
1354.1	77.666
2288.3	64.537
2917.6	53.339
3183.2	43.012
3187.1	37.162
3155.1	35.468
3301.1	37.59
3650.8	44.407
4036.6	53.814
4313.4	62.37
4408.6	70.214
4355.4	75.392
4222	76.968
4043.5	78.588
3817.8	82.801
3541.2	90.022
3245.4	96.333
3056.8	98.732
3069	94.578
3203.3	86.377
3271.4	81.394
3105.5	85.913
2701.4	96.047
2300.5	103.75
2369.9	100.9
2998.3	86.006
3737.2	61.057
4188.8	44.777
4134	63.325
3510.9	95.859
2437.7	121.74
1505.9	132
2204.2	126.24
3801.3	105.31
5324.5	77.833
6471	56.223
7114.5	52.924
7234.9	59.034
6888.2	58.078
6226.5	46.53
5395	40
4547.9	60.877
3788.6	98.509
3180	132.55
2791.1	155.03
2742.7	161.64
3088.5	151.21
3699.3	126.25
4362	97.622
4907.2	79.925
5229.5	86.267
5316	106
5210.9	120.93
5018	125.04
4838.8	115.52
4717.6	98.184
4611.8	77.233
4446.5	65.192
4150.2	66.189
3736.6	76.217
3246.3	84.528
2784.5	87.664
2430.2	84.404
2200.4	78.715
2042.3	72.09
1864.5	68.884
1636	68.411
1356.1	67.067
1048.7	64.351
765.25	58.138
540.52	51.4
387.24	44.643
316.84	40.162
295.79	38.601
295.85	37.014
290.95	35.384
286.01	33.061
284.3	27.659
278.17	21.095
242.74	14.213
173.67	8.2462
141.52	4.1231
295.42	4.4721
516.62	6
730.39	6.7082
884.62	5.831
948.81	5.099
929.55	7
855.9	10.296
815.16	13
868.49	16.155
1003.1	17.088
1140	16.553
1217.3	13.928
1219.3	10.77
1181.2	8.6023
1150.8	6.3246
1180.9	7
1277.4	8.9443
1389.5	12.083
1452.9	13.601
1452.4	15.232
1366.3	16.125
1220.9	16.125
1054.5	14.213
918.44	11.705
860.48	9
874.95	5.099
916.63	3
934.1	5
910.07	7.6158
842.39	10.05
758.02	12.649
667.37	13.454
577.47	13.601
477.72	12.166
359.58	10
244.35	7.6158
199.36	4.1231
260.91	1
318.03	2.8284
312.8	5
221.68	6.7082
72.863	7.2111
125.93	7.0711
315.63	7.2801
465.98	7.2111
538.91	7.8102
531.61	8.544
445	9.2195
357.76	9.8995
373.95	9.0554
502.63	8.4853
641.61	10.198
721.52	11.662
730.17	14.318
659.65	16.401
529.59	17.029
372.7	16.125
271.47	13.038
300.57	8.0623
395.25	4
475.27	4.2426
505.06	7.0711
463.22	8.2462
361.11	7.6158
239.94	5.099
203.97	4.1231
1356.6	46.098
2064.7	33.615
2934.6	38.588
3636.5	59.059
4106.5	83.241
4347.6	102.46
4351.9	114.54
4146.9	118.41
3742.3	114.39
3274.2	108.67
2912.4	104.65
2861.4	105.7
3077.6	109.44
3322.7	112.4
3348.8	111.36
3042.4	104.35
2432.1	90.785
1752.8	75.166
1623.3	59.363
2300.1	46.819
3166.6	39.217
3852.7	36.892
4245	40.112
4364.2	46.228
4356.1	53.852
4413.6	61.465
4658.8	67.231
5020.5	72.007
5344	76.059
5448.1	79.101
5266	82.735
4806.8	84.291
4207.1	84.054
3679	81.043
3439.4	75.153
3494.9	68.71
3634.1	63.506
3613.4	65
3331.9	71.281
2818.5	80.604
2299.6	87.818
2173	89.538
2593.5	83.57
3196	71.176
3625.7	57.454
3692.6	53.935
3332.3	69.376
2578.5	93.6
1564.3	113.44
1014.3	126.48
1979.1	128.32
3328.7	120.83
4594	107.7
5617.5	92.655
6334.7	78.006
6712.6	67.956
6747.8	60.033
6479.2	60.531
5962.2	72.125
5265.4	93.862
4481.6	119.21
3720.5	139.95
3133.4	152.59
2891.3	153.88
3063	143.78
3513.4	124.33
4039	102.08
4501.4	84.155
4802.7	76.922
4915.8	81.025
4857.3	90.609
4688.8	97.949
4506	99.282
4378.8	95.352
4328.4	84.959
4307.4	72.028
4221.6	62.426
4017	62.769
3682.6	73.98
3259.2	88.204
2826.5	98.494
2474.9	100.65
2252.7	96.773
2099.1	86.729
1928.6	75.027
1677.2	68.096
1331.8	64.63
919.42	63.891
503.17	60.299
142.34	54.203
108.08	44.721
232.36	33.838
225.52	25.179
148.22	19.799
173.53	18.028
322.45	16.401
449.68	15.652
507.21	15.133
477.25	14.142
393.93	13.416
320.56	9.8995
342.79	5.831
436.33	2.8284
540.55	5
637.88	7.0711
746.09	5.831
863.68	2.8284
986.14	4.4721
1087.2	11.314
1145.2	17.464
1174.7	22.136
1187.4	22.023
1213.2	19.026
1261.7	13.454
1331.3	7.6158
1383.7	9.434
1407.8	16.031
1381.6	20.809
1312.6	22.804
1229.5	21.541
1142.4	18.358
1067.7	13.153
1009.9	8.4853
986.32	4
978.2	1
988.87	2
1004.3	2.8284
1023.1	3.1623
1035.3	1
1029.6	2
988.79	6.7082
904.04	11.18
770.16	15.033
596.48	16.401
435.47	15.811
372.95	12.369
428.43	7.8102
498.13	2.2361
497.36	4.1231
403.5	7.2111
270.01	8.0623
277.04	6
455.87	3.1623
625.16	5
697.84	10.63
641.31	14.56
447.16	16.492
142.84	16.279
224.04	13.153
578.55	9.434
862	6.0828
1025.3	5.6569
1040.1	5.099
915.03	6.0828
684.75	9.4868
418.08	12.806
240.69	16.553
329.69	18.028
451.32	16.643
482.03	13
433.85	6.3246
299.93	2.2361
137.57	7.2111
72.945	12.166
184.95	12.806
255.56	12.166
1815.1	44.011
2326.6	37.483
2930.6	43.6
3416.8	59.228
3747.1	77.621
3935.3	93.086
3981.2	104.31
3888.8	111.23
3676.3	112.54
3381.1	110.6
3129.2	107.12
3024.1	104.69
3079.8	103.59
3182.1	102.08
3162.2	100.66
2915.3	96.317
2452.6	89.107
1950.6	81.32
1836.5	71.589
2352.6	63.032
3133.5	54.708
3836	48.083
4308.2	44.407
4548.5	44.045
4664.5	45.453
4808.6	49.336
5072.8	53.759
5398.8	60.216
5629	66.731
5628.7	75.107
5326	82.735
4773.2	87.464
4146.7	90.449
3659.8	91.22
3446.7	91.005
3426.9	92.634
3376	95
3135.5	98.311
2683.8	98.326
2131.4	93.814
1739.7	83.934
1805.8	70.264
2271.9	55.462
2813.1	41.761
3215.5	33.106
3363.6	32.202
3173.2	38.626
2634.6	52.202
1871.6	70.434
1530.1	90.2
2385.8	108.76
3747.9	123.13
5032.2	130.29
6000.8	127.42
6505.9	114.98
6556.9	97.944
6243.1	83.235
5744.9	88.295
5250.6	111.97
4878.1	142.28
4596.6	167.69
4309.1	182.33
3982.4	183.44
3700.1	171.59
3616.6	150.76
3807.9	123.22
4150	94.868
4475.3	70.576
4672	52.326
4706.8	42.059
4635.8	43
4507	55.714
4355.2	73.41
4205	91.022
4074.6	104.48
3994	111.16
3982.4	114.02
4031.6	114.21
4051.1	116.04
3975	119.82
3727.1	123.81
3302.3	123.32
2756	116.66
2153.8	102.12
1594.9	81.345
1133.4	59.304
785.72	38.833
503.53	21.84
260.16	12.042
160.53	12.166
305.24	20
429.51	31.321
478.58	41.629
440.41	49.659
344.1	52.202
256.48	48.877
219.62	41.761
197.31	32.894
128.82	26.173
16.643	24.352
168.55	25.318
361.72	24.759
537.16	22.561
685.77	19.416
799.46	20.248
882.92	23.259
941	25.71
971.97	25.554
967.79	22.136
943.89	13.928
961.79	5.831
1052.1	2
1224.4	7.8102
1418.1	10.05
1567.6	8.6023
1621.9	7.0711
1572.9	10.63
1440.6	17.117
1249.6	22.804
1065.4	26.173
918.56	26.173
847.64	24
853.87	18.385
924.86	12.166
1029.8	8.0623
1153.8	8.2462
1244	9.2195
1286.1	8.0623
1257.3	5.831
1165.5	3.1623
1026.9	7.0711
869.12	12.042
732.14	16.031
628.56	18.385
556.38	18.028
490.7	14.866
421.9	11.045
343.12	7.6158
292.54	6.4031
299.24	6.7082
345.81	7
404.93	6.3246
435.34	6.4031
422.93	8.0623
362.67	11.045
265.24	13.454
128.69	14.318
37.947	13
198.57	10.63
377.92	8.0623
533.88	7.8102
667.6	10.296
753.19	14.036
766.85	15.652
719.73	15.652
606.93	14.142
441.33	12.042
284.02	9.0554
252.45	6.7082
341.58	4.1231
426.9	2
448.97	1
403.07	1.4142
287.01	1.4142
154.56	3.1623
124.87	5
2893.9	51.43
2651.7	52.811
2467.5	58.138
2288.5	68.007
2258.5	79.712
2612.5	91.526
3311.4	101.02
4059.7	106.51
4602.3	108.85
4784.2	109.04
4585.8	106.83
4063.8	104
3369.1	101.6
2688.9	99.298
2150.3	96.602
1815.2	94.048
1640.6	90.211
1567.5	84.119
1586.1	77.104
1717.5	67.676
2028.1	57.697
2592	48.042
3393.5	40.719
4350.7	37.537
5279.4	40.817
6012.4	48.052
6419.9	58.464
6467.5	68.884
6210.9	76.322
5777.2	81.744
5314.6	83.6
4894.7	83.259
4489.8	81.498
4030.2	80
3457	80.411
2814.4	81.786
2196	84.865
1705	89.107
1411.4	92.574
1421	93.059
1807.9	90.67
2459.7	82.759
3141.5	71.701
3644.4	59.908
3821.8	49.82
3599.6	46.4
3055.7	49.031
2420.8	54.424
2134.5	63.655
2461.3	76.896
3114.2	93.193
3773.5	108.91
4355.5	119.57
4881.3	122.2
5352.7	114.87
5719.9	100.32
5869.7	88.091
5756.4	93.776
5391.2	118.13
4889.9	149.79
4434.4	177.2
4156.5	193.5
4086.3	195.17
4105.5	184.88
4122.9	162.05
4142.2	132.83
4199.4	102
4294.8	71.113
4369.5	45.177
4366.4	27.893
4283	32.14
4203.8	51.894
4223.4	75.472
4365.2	96.421
4539.3	112.45
4615.9	123.69
4516.5	130.43
4266.8	131.8
3941.4	131.03
3607.2	129.54
3321.4	125.67
3047.9	118.47
2712.9	106.9
2310.2	91.837
1857	72
1404.4	51.624
1011.7	33.015
690.57	21.954
428.88	23.324
204.75	29.428
146.22	36.249
241.77	42.048
263.89	46.174
170.84	48.374
118.87	49.031
357.21	46.4
595.21	40.112
726	31.89
682.62	22.204
451.84	14.866
79.404	13.038
404.28	15.264
858.94	17.263
1204.6	17.804
1372.3	16.279
1333.1	13.038
1130.5	9.4868
828.76	7.2801
540.38	5
357.53	4.2426
377.24	6.4031
594.12	9.0554
954.88	11.18
1390.1	12.083
1800.6	12.369
2081.4	11.662
2164.2	11.402
2016.3	12.207
1665.6	12.042
1193.2	12.207
684.21	11.662
282.61	12.042
367.46	11.705
689.16	12.042
1019.7	10.44
1359	8.2462
1659	5.831
1857.2	4.4721
1897.5	4
1764.1	3.6056
1493.6	3.1623
1159.5	1
881.15	4.1231
736.98	8.4853
680.95	12.166
596.66	15.232
447.69	16.125
289.69	14.142
253.75	10.63
314.76	7.2801
316.57	5.099
191.11	7
29.069	8.9443
282.7	10.77
502.47	11.402
614.23	12.806
579.83	14.036
408.01	14.213
215.23	13.342
422.4	10.44
751.77	5.831
1006.9	5.3852
1116	10.44
1058.5	16.279
870.2	19.849
596.01	20.248
315.34	18.439
125.78	13.454
150.96	7.6158
181.73	2.2361
168.4	3.1623
201.34	5
283.75	5.831
353.01	4.2426
338.12	3.1623
267.76	6.0828
3652.5	50.249
2921.4	45.706
2094.8	46.819
1410.1	53.075
1585.6	65
2521.6	81.744
3548.5	99.705
4375.8	114.24
4857.3	124.33
4953.4	126.62
4662.8	119.82
4092.2	108.06
3354.4	92.65
2584.5	82.219
1898.4	79.605
1384.5	85
1093.9	92.892
1071.2	96.938
1328.2	94.641
1807.2	86.4
2416.4	70.838
3091.8	51.42
3790.7	29.017
4472.8	21.932
5118.8	39.357
5700.7	59.135
6195.2	75.584
6537.9	84.06
6662.9	85.006
6517.7	79.649
6070.6	70.803
5339.9	62.298
4400.1	62.29
3371.6	72.18
2415.4	87.367
1663.1	102
1248.1	111.16
1257.6	113.81
1662.4	109.11
2304.1	96.566
3003.1	81.056
3590.8	63.127
3921.4	48.374
3939	38.079
3665.2	36.222
3240	41.761
2863.9	55.227
2647.4	70.838
2560.5	86.493
2498.1	97.949
2544.4	103.25
2935.6	102.49
3750.4	96.897
4724.9	90.973
5538.4	84.481
5924.5	80.056
5760.5	79.706
5078.8	87.321
4104.5	106.89
3374.5	137.38
3500	170.39
4321.5	198.48
5198.1	213.62
5720.6	212.42
5780	194.55
5403	161.25
4724	117.27
3948.2	68.819
3336.7	22.023
3115.4	25.554
3307.7	57.428
3747.1	81.988
4214.7	98.681
4569.8	110.86
4731.8	120.31
4692.5	125.51
4476.9	125.99
4168.1	122.48
3851.6	116.25
3579.7	109.34
3331.3	103.59
3057.2	99.202
2714.1	96.177
2291.2	91.444
1835.4	83.934
1416.8	73.573
1084.5	60.531
828.33	42.45
599.47	22.023
350.68	0
97.293	23.537
200.86	44.721
427.48	61.847
608.17	72.422
718.1	75.802
757.2	71.805
719.41	63.135
582.75	54.231
358.67	46.69
123.45	42.638
403.06	41.437
771.9	40.522
1081.5	37.014
1261	33.136
1281.3	27.731
1149.3	24.413
893.48	20.396
565.77	18.248
245.23	19.698
270.24	24.083
621.1	30.265
1019.1	33.287
1457.7	34.205
1851	31.305
2153	25.08
2270.3	18.248
2173.1	13.038
1850.7	11.402
1344.1	12.806
758.92	15.811
409.31	20.396
751	24.759
1172.4	29.017
1444.1	30.48
1567.7	28.16
1562.7	23.601
1475.2	16.763
1344.3	11
1198.5	12.166
1045.2	15.264
894.46	18.028
776.31	18.974
706.2	17.493
652.99	16.031
563.45	14.866
433.68	13.153
306.08	10.817
352.23	6
511.98	1
640.19	4
673.45	8.6023
603.38	9.4868
423.45	8.0623
195.47	3.1623
75.392	4.1231
221.1	12.042
290.77	18.028
238.9	21.84
91.198	21.26
154.06	17.029
404.4	9.434
638.32	1.4142
805.32	9.0554
889.13	16.401
880.33	21.587
814.49	23.259
699.44	21.024
582.51	17.088
469.14	12.369
363.98	9.2195
270.52	8.6023
176.92	9.0554
107.9	8.9443
70.725	7.8102
89.067	6.3246
119.36	6.3246
3862	51.43
3115.6	49
2200.4	48.703
1343.4	55.758
1325.2	70.937
2273.4	89.811
3353.2	107.47
4261.4	120.74
4825.1	125.1
4982.8	122.19
4723.5	111.83
4113.3	97.908
3302.2	84.959
2491.2	79.925
1921.7	82.28
1682.3	87.367
1619.9	92.179
1563.1	92.005
1612.4	87.321
1954.2	77.524
2573.5	65
3287.9	51.624
3954.5	39.825
4525.8	34.205
5014.2	38.275
5475.5	49.204
5911.8	63.411
6269.7	76.217
6474.8	87.052
6448.4	92.195
6174.6	91.241
5672.5	84.172
5012.5	74.813
4223.6	68.029
3335.7	70.859
2330.9	82.079
1275.6	94.795
833.02	104.68
1760.8	109.66
2848	107.56
3718	100.5
4255.5	89.359
4476.1	75.027
4463.2	57.07
4355.4	37.736
4213	28.16
3979	46.69
3503.9	74.431
2705	99.479
1785.8	115.02
1823.2	120.11
3155.4	113.64
4657	97.417
5796.7	77.104
6294.3	59.076
6024	51.546
5025.3	60.008
3552.4	80.262
2275.3	109.77
2575.3	145.28
3915.4	180.41
5066.7	210.4
5649.6	226.74
5603.2	227.04
5079.5	208.49
4421.3	171.14
4057.8	121.05
4206.6	63.246
4616.3	7.2801
4919	46.39
4895.3	86.215
4542.7	111.66
4008.3	123
3569	123.04
3493.5	114.98
3788.4	103.37
4200.1	95
4485.4	91.586
4503.4	96.338
4223.1	104.81
3668	114.63
2928	120.5
2140.4	119.85
1512.2	111.07
1297	94.921
1426.4	72.567
1571.3	47.802
1538.2	23.431
1310.8	14.142
963.51	27.166
709.37	40.025
833.96	47.802
1152.8	52.802
1402.3	54.148
1494.8	53.824
1427.9	51.264
1257	48.384
1086.5	45.651
1033.9	42.72
1115.9	42.048
1238.7	40.719
1305.8	39.294
1264.5	37.802
1106.5	37
846.71	35
517.93	32.573
205.52	29.12
355.79	26.87
698	25.632
1004	29.069
1243	35
1390.8	41.231
1474.9	43.417
1523.4	42.72
1561.7	37.121
1598.7	28.636
1614.1	20.025
1567.1	17.464
1420.1	21.954
1157.8	28.178
812.47	31.78
508.1	33.601
576.28	33.136
956.3	30.414
1341.2	28.018
1634.1	23.601
1782.2	18.682
1785.7	13.601
1656.7	11.402
1420.6	11.662
1117.5	14
796.47	15.556
499.03	16.125
261.28	13.928
122.3	11.314
132.52	8.6023
191.6	8.0623
270.45	7.6158
361.22	7.0711
448.08	5.099
510.15	2.2361
530.69	2.2361
500.68	5.831
430.27	7.8102
347.68	9.8489
283.19	10.05
251.2	11.18
213.85	12.083
138.22	12.728
21.401	11.705
186.43	8.0623
402.85	3.6056
609.47	2.8284
784.92	9
888.15	15
904.59	19.925
841.81	21.541
715	21.471
553.71	17.72
382.94	14.866
239.63	12.042
148.35	11.402
109.14	12.369
107.56	12.042
125.99	10.198
156.54	10.05
3572	58.249
3014.3	56.754
2517	57.035
2035.6	59.908
1653.7	67.978
1753.8	80.92
2490	95.415
3476	109.14
4373.8	118.83
4949.1	121.2
5063.9	116
4681.8	104.2
3842.5	89.022
2676	78.262
1368.4	77.104
441.07	86.371
1346.8	98.615
2331	105.31
3142.7	102.07
3784.3	91.417
4268.7	73.246
4534.7	51.245
4522.8	35.171
4177	36.62
3640	49.041
3355	62.266
3896.1	70.88
5175.5	75.06
6606.8	77.666
7720.8	77.389
8219.6	76.059
7949.4	72.007
6920.3	68.877
5266.5	65.521
3233.2	66.483
1122	72.111
854.76	81.908
2344.6	93.6
3336.7	103.08
3848.9	108.56
4059.2	109.2
4146.2	102.65
4228.4	89.286
4256.1	69.871
4133.9	46.098
3825.4	29.833
3419.7	40.311
3086.8	65.123
2979.2	88.119
3059.8	104.56
3248.7	113.16
3539.4	112.29
3996.9	103.59
4576.3	88.006
5072.2	70.264
5219.3	55.606
4803.6	56.08
3776.5	78.746
2303.2	113.23
1371.4	151.61
2617.6	187.68
4228.2	216.76
5347.2	232.69
5701.6	231.54
5281.8	212.08
4299.6	174.38
3332.5	123.15
3270.1	64.031
4105.3	11.18
4974	52.402
5354.7	93.622
5105.2	119.55
4380.7	128.69
3615.9	122.43
3443.4	108
3987.6	96.104
4703.4	94.578
5125.3	105.15
5079.3	119.47
4570.1	130.25
3728.9	132.98
2769.2	124.84
1945.5	109.56
1479.9	88.363
1386.3	65.765
1404.6	45.277
1338	33.242
1151.2	29.732
896.73	28.018
667.22	23.259
613.18	18.028
795.24	23.022
1038.9	38.288
1240	55.902
1358.3	69.065
1379.1	76.276
1341.7	75.611
1326.8	68.622
1382.9	57.706
1500.8	48.466
1612.4	44.147
1652.6	45.453
1554	46.098
1303.3	44.045
911.07	37.483
428.67	27.203
236.1	18
684.55	15.297
1078	20.616
1296	27.166
1324.1	31.145
1203.3	33.242
1069.5	31.321
1142.9	27.659
1438.7	23.087
1753.5	17.029
1933.7	12.042
1890.7	11.18
1602.2	14.422
1124.6	18.682
553.47	22.361
376.88	26.571
837.23	29.069
1248.4	30.364
1509.4	30.529
1617.2	27.459
1626.7	22.804
1583.6	16.492
1502	12.166
1384	12.53
1204.7	16.155
954.93	17.889
675.3	18.111
413.81	15.264
227.16	12.042
137.54	8.6023
95.52	8.6023
155.13	7.6158
334.89	6.0828
526.06	3
672.58	1
744.7	5
715.3	7.2801
622.86	7.2111
526.94	5
474.32	5.099
449.18	10.05
394.09	14.765
296.53	18.028
252.62	18.028
422.64	15
660.09	10
849.71	9
935	15.232
900.74	22.472
778.09	26.926
597.21	28.16
450.88	24.759
411.81	19.105
434.9	12.728
452.17	8.9443
424.76	9.0554
382.69	11.18
355.22	10.77
346.24	9.4868
324.09	9.2195
2319.5	79.756
1840	69.376
1737.4	58.052
1660.9	59.775
1361.1	76.243
988.32	98.25
1346.2	114
2380.3	118.51
3482.8	113.45
4380.6	100.18
4893.4	86.977
4922.5	80.081
4442.2	79.624
3509.8	79.158
2216.3	73.246
760.07	65.62
1028.5	63.198
2517.8	73.246
3832.7	85.866
4839.5	92.65
5431.6	86.023
5538.8	64.133
5136	31.048
4288.4	7.2111
3233.2	43.863
2643.5	70.007
3347.9	81.437
4810.2	76.368
6279.7	58.822
7355.2	47.381
7850.8	61.057
7666.2	85.147
6837.3	99.323
5460.6	96.773
3710.1	80
1803.9	60.033
563.17	65.788
2035.7	98.671
3439.8	131
4451.6	149.97
4999.6	149.16
5088	129.07
4785.7	91.679
4252.3	47.202
3725.3	12.649
3433.7	45
3377.5	73.926
3307.8	90.139
2976.1	93.622
2322.6	87.784
1694.6	78.186
1987.7	71.344
3063.2	71.847
4088.8	78.721
4654.1	85.563
4560	89.051
3778.2	87.693
2430.8	87.144
850.59	98.005
1187.9	127.13
2581.1	167.86
3516.2	208.72
3842.1	237.93
3590.9	248.57
2965.3	235.2
2384.6	197.73
2305.9	142.89
2684.9	78.848
3084.8	42.202
3287.8	77.253
3329.5	115.43
3321.2	134.95
3346.4	130.73
3384.9	109.55
3385.1	83.952
3395.7	79.158
3548.2	101.18
3942.2	128.74
4424.7	147.2
4780.8	149.38
4779.2	137.93
4335.6	116.9
3510.3	92.574
2501.4	71.61
1776.2	60.208
1860.6	53.907
2352.6	46.065
2648.7	34.525
2542	19.105
2034.7	4.2426
1235.2	18.439
367.6	34.234
702.16	47.011
1442.7	55.606
1961.7	60.638
2209.6	62.586
2190.2	62.37
1918.8	59.135
1483.1	55.082
972.94	50
628.18	46.174
791.59	43.186
1121.3	40.012
1304	38.184
1248.2	34.059
957	29.069
496.45	24
222.28	20.616
646.61	21.587
1013	23.324
1203.8	27.166
1247.4	29.206
1285.8	31.016
1452.1	31.257
1740.9	29.069
2001.6	24.739
2121.9	19.235
2042	15.033
1783.2	16.155
1431.6	22.204
1110.4	29.614
948.43	33.541
980.98	34.886
1156.4	32.249
1437.3	26.173
1783.9	18.248
2110.3	11.402
2326.4	7
2337.9	5.3852
2121.6	6.3246
1696.4	7.2111
1152.2	9.8995
646.8	13.416
506.49	16.031
698.03	18.028
803.06	17.088
707.7	14.866
432.35	10.77
74.733	7.8102
358.02	7.6158
695.81	8
918.4	8.6023
991.65	8.544
940.36	9.0554
800.68	10.817
649.84	12.369
554.58	13.601
550.26	13.038
607.6	11.402
672.22	8.544
705.33	6
693.99	4.4721
619.79	4.2426
490.33	6.0828
325.98	8.6023
228.44	14.036
319.19	18.385
478.08	22.204
617.82	24.698
700.13	23.77
740.67	21.19
732.51	16.553
688.45	12.207
630.77	10.77
559.38	15.033
506.86	19.105
1866.1	64.008
1134	62.37
1391.9	54.818
1675.1	44.045
1490.1	45
839.05	60.465
818.09	80.623
2086	93.941
3432.7	95.189
4501.5	83.815
5096.8	61.612
5098.2	36.878
4509.1	27.659
3422	40
1980.3	50.448
466.1	48.877
1322.2	36.77
2744	23.854
3897.9	32.14
4701.1	51.923
5120.4	66.708
5153.1	71.784
4803.7	67.357
4145.3	57.245
3339.4	49.193
2827.7	48.374
3227.6	50.931
4444.3	46.043
5881.6	33.302
7122.7	13.928
7901	23.601
8020.7	47.074
7421.6	63.702
6113.9	68.25
4220.8	55.973
1970.2	27.586
403.98	12.166
2531.6	55.154
4243.8	94.921
5343.1	125.42
5749.7	140.62
5513.1	136.01
4798.6	113.37
3882.1	77.279
3097.8	36.222
2712.1	27.659
2631.3	62.201
2489.7	89.811
2050.6	105.12
1279.3	108.98
503.59	107.07
1205.7	108.05
2242.8	115.38
3038.3	127.14
3441.5	133.66
3422.6	132.03
3070	122.33
2608.4	115.57
2329.5	125.9
2372.3	156.71
2519.6	193.94
2497.1	224.47
2178.2	238.4
1582.8	232.01
890.48	204.38
572.18	159.85
902.23	110.77
1159	72.897
1165.3	72.18
1046.4	93.048
1113.3	108.81
1442.4	110.48
1739.2	97.739
1789.4	78.23
1509.2	63.071
1087.7	65.376
1203.4	81.394
1997.7	97.329
2848.9	109.73
3433.6	115.11
3613.5	112.93
3360.3	106.23
2770.1	93.536
2050.6	76.118
1537.5	57.009
1509.5	41.146
1770.3	32.311
2005.5	31.016
2147.1	30.529
2233.1	25.239
2278.5	13.153
2211.6	13.038
1926.3	32.016
1396.9	50.774
736.22	66.242
707.02	75.007
1448.5	75.584
2130.8	70.434
2520.9	60.44
2568.4	50.16
2292.9	42.154
1808.3	35.384
1289.8	31.016
923.54	26.249
810.69	23.77
812.8	26.926
855.25	33.377
1001.1	39.661
1259.3	43.966
1506.2	44.011
1630.2	40.497
1577.7	34.059
1400.2	26.249
1258.2	18.439
1289.3	12.083
1436.9	8.6023
1521.8	8.2462
1416.8	10.44
1109	15
649.71	20.025
171.69	25.495
367.72	30.265
702.7	32.45
899.39	34.205
1028.8	32.65
1201.1	28.792
1444.9	25.08
1683.4	19.313
1801.5	13
1734.8	7.2801
1467.4	1.4142
1048.6	3.6056
562.15	8.544
207.68	13
402.09	17.464
597.57	19.313
642.28	20.616
551.06	19.313
389.1	16.553
233.31	13.342
166.03	10.63
218.52	10.296
318.69	12
448.29	15
560.18	16.125
605.87	16.279
541.91	14.142
357.41	11.18
97.406	8.0623
275.14	4.1231
580.28	3.1623
804.42	4
893.13	5.831
851.42	8.2462
728.01	11.18
633.53	15.232
660.68	19.416
753.73	21.932
804.62	23.537
753.64	23.087
578.54	19.849
347.12	16.031
147	11.314
201.24	8.544
300.19	12
305.39	19.105
2970	31.016
2496.9	31.906
1728.3	27.586
876.29	18.601
363.35	13.601
614.22	26.173
887.28	44.407
1403.6	60.415
2358.2	69.029
3512.1	69.123
4514.6	60.671
5066.1	45.651
4961.8	26.401
4179.3	15.033
2899	26
1768.7	37.656
2062.6	40.311
3096.9	33.106
3765.4	18.788
3822.8	18.601
3437.2	44.045
3140.7	70.007
3420.1	91.005
3975.5	101.55
4178.9	97.949
3679.8	81.492
2637.3	52.953
2408.3	17.205
4164.2	20.616
6407.3	54.037
8188	77.414
9018.9	84.876
8693.2	75.664
7258.5	50.922
5011.5	14.866
2447.2	27.514
1100.9	68.731
2619.9	100.21
3754.7	118.96
4082.6	120
3852.5	105.99
3641.1	79.404
3923.7	46.174
4469.2	16.401
4736.3	21.378
4396.5	40.311
3459.9	53.814
2254	62.426
1603.7	69.318
2062.6	75.961
2492.2	79.404
2257.6	77.233
1325.1	71.197
905.92	65.513
2565.4	65.924
4300.5	71.197
5531.5	76.655
5968.8	77.492
5533.8	78.109
4341.5	91.482
2684.7	119.62
1216.1	156.16
1440.2	187.86
2254.4	207.88
2472.3	211.12
1984.9	198.01
954.83	171.61
371.18	138.29
1573.7	106.45
2402.5	81.908
2652.3	63.135
2266.2	47.381
1350.2	29.155
238.89	16.763
1207.3	24.515
2238.6	36.056
2837.6	42.579
2910	42.72
2515.7	45.354
1807.6	58.941
1065.5	77.82
740.25	94.048
906.24	100.32
963.63	94.005
760.26	73.736
461.64	46.615
634.55	25.298
1095.9	34.928
1461	54.037
1636.9	64.257
1639.5	64.031
1562.5	54.148
1468.1	42.638
1387.2	35.057
1296.2	35.805
1251.4	39
1333.8	40.311
1571.1	42.202
1825.6	47.381
1950.4	56.859
1852.8	65.146
1529.1	68.066
1057.3	65.795
625.88	55.902
568.68	42.379
731.74	27.074
747.76	12.806
547.73	7.2111
289.66	15.133
540.9	25.554
942.72	34.059
1196	41.785
1205.2	46
960.53	44.944
580.4	39.051
488.75	30.529
870.45	20.248
1215.6	12.369
1352.7	7.2801
1249.2	2.2361
963.08	6
626.18	17.088
400.12	29.698
363.79	39.56
291.81	45.1
166.44	45.277
481.11	38.275
967.85	27.295
1410.3	13.342
1684.6	2.8284
1722.3	11.18
1491.9	15.264
1061.2	14.318
576.75	9.4868
440.92	6.7082
735.27	13.153
956.77	21.213
982.78	25.71
878.19	25.962
794.22	21.932
868.89	14.866
1025.5	6.0828
1093.5	4.1231
994.03	12.042
727.4	18.385
351.4	22.023
207.62	23.087
528.21	20.809
773.84	17.804
877.91	12.53
843.79	8.9443
736.55	8.6023
643	8.0623
611.24	8.0623
621.31	7.2111
603.52	8.0623
528.16	12.53
418.65	19.235
305	24.083
200.57	27.514
117.71	26.476
121.02	23.431
236.89	18.028
352.05	12.649
415.99	8.2462
392.91	9.8995
3347.5	10.296
3565.2	10
3324.1	8.0623
2629.5	5
1620.5	8.4853
1101.4	18.028
2099.9	28.653
3357.6	36.892
4299.3	43.046
4716.5	44.721
4551.2	42.72
3916.9	37.014
3142.8	28.844
2805.6	19.647
3183.4	12.042
3770.7	9.434
4045.5	10.77
3806.1	15.133
3096	21.26
2230.8	30.265
1855.7	40.46
2268.5	51
2729.4	59.405
2723.1	65.46
2086.3	66.483
877.02	62.626
731.26	55.009
2453.2	45.453
4026.2	36.056
5211.6	30.61
5887.7	30.364
6020.2	33.242
5700.6	36.249
5082.6	39.395
4337.3	41.11
3625.3	43.417
3057.7	47.297
2714.8	53.009
2597.1	60.133
2593.5	67.357
2519	75.186
2240.2	80.994
1731	82.201
1155.8	80.306
1072.9	72.918
1626	60.605
2180.1	45.354
2433.5	31.016
2301.3	24.331
1813.6	28.862
1108.5	35.014
404.03	37.336
360.51	32.527
797.16	20.616
1282.6	5
2026.1	15.811
3034.1	31.321
4104.7	41.11
4986.3	45.222
5452.7	45.88
5373.7	58.523
4741.1	88.64
3702.8	126.81
2590.7	166.39
2026.7	198
2346.6	215.56
2882.2	214.48
3138.3	195.73
3026	160.37
2679.8	113.85
2400.3	64.475
2420.6	24.698
2678.4	31.016
2922.7	50.99
2986.3	56.604
2831.2	47.802
2489.6	30.017
2018.9	23.259
1467.5	43.417
883.02	66.287
494.82	81.123
816.95	85.024
1348.4	78.294
1757.6	62.769
1951.3	41.012
1917.9	17.205
1704.1	5
1440	23.022
1257	35.847
1186.9	44.777
1106.3	47.011
942.25	47.424
770.06	46.011
904.49	45.31
1349.9	45.044
1822.7	45.607
2146.5	46.615
2240.5	46.615
2103.8	44.643
1793.7	42.012
1399.3	39.56
1031	39.446
751.17	40.311
555.12	41.629
386.6	41
233.89	39.357
210.32	36.056
286.36	32.016
297.95	28.302
216.62	25.495
187.97	23.087
385.39	23.324
609.8	23.022
726.84	23.77
674.84	24.187
447.76	23.707
232.02	22.672
577.89	21.024
1039	20.224
1389.8	20.224
1544.7	20.591
1465.7	23.022
1169.2	25.02
769.81	26.077
569.96	27.514
839.47	27.893
1180.5	26.249
1375.3	23.195
1368.3	18.028
1177.8	10.63
864.49	5
526.54	7.0711
286.42	12
263.8	15.811
298.67	17.692
254.52	17.464
169.31	16.031
193.26	13.928
325.36	12.042
430.41	10.05
463.68	8.4853
435.6	9.4868
361.81	13.928
281.71	18.974
226.68	21.633
190.07	23.022
173.25	22.023
209.9	18.439
299.9	12.53
402.27	6.0828
480.21	3.1623
509.24	7.2801
471.27	12.53
378.16	16.492
232.97	18.601
61.66	19
115.12	18.601
281.77	17.464
419.33	15.033
514.57	13
558.03	12.806
539.63	15.264
471.11	18.028
359.05	20.591
216.15	22.361
68.264	22.204
2121.5	15.652
2312.3	20.518
2243	23.77
1864	23.022
1250.9	21.19
827.15	18.868
1422.8	18.385
2423.4	20.125
3372.1	24.083
4117.7	28.425
4597.4	33.541
4774.9	39.446
4680.9	43.081
4336.9	43.681
3794.9	38.833
3099.7	28.284
2336.8	17.72
1631.5	20.224
1182.5	36.125
1126.2	53.038
1251.4	64.661
1285.1	69.771
1160.7	68.066
916.26	60.902
662.37	49.406
569.35	39.294
803.86	31.257
1366.4	27.203
2203.8	24.739
3222.5	28.018
4288	35.355
5217.2	44.654
5844.3	52.887
6043.6	56.365
5779.7	57.009
5089.5	57.271
4134	59.775
3138.9	65.765
2395.1	73.007
2085.1	76.942
2046	76.026
1948.3	73.498
1651.2	69.893
1165.7	70.456
577.63	72.835
64.07	71.554
577.59	63.702
1074.2	48.466
1524.9	27.166
1892.4	9.8995
2087.7	24.021
1990.4	37.336
1526.3	40.311
655.97	32.016
567.37	12.083
2000.6	15.297
3454	40.46
4709.9	59.666
5591.1	68.884
5964.6	65.391
5795.7	58.694
5178.2	71.805
4311.3	109.11
3517.9	153.94
3121.7	193.05
3187.9	215.96
3400	218.2
3477.4	199.41
3336.7	161.61
3054.6	111.31
2805.4	57.14
2719.9	9.4868
2782.5	33.838
2842.7	54.562
2760.8	57.385
2481.4	44.102
2014.5	17.889
1429.5	14.318
794.19	45.044
231.14	69.462
368.45	83.546
746.6	85.071
1012.2	76.236
1181.9	60.008
1274.6	40.804
1330.9	24.698
1369.1	20.1
1396.1	24.515
1389.9	31.78
1334.4	39.623
1205.8	48.042
1027.2	55.902
841.49	61.741
792.1	64.444
949.09	62.266
1225.9	55.543
1489.1	46.011
1670.8	38.328
1728.2	34.525
1662.7	36.139
1496.5	38.91
1277.7	41.037
1058.1	41.146
891.71	39.051
776.02	35.468
677.86	31.828
561.23	28.636
426.46	27.166
356.2	26.476
428.94	27.785
539.55	28.425
598.36	30.364
558.53	30.15
398.93	28.653
145.99	24.839
195.03	20.248
520.75	16.279
810.25	13.342
1002.7	16.279
1076.4	21.024
1013.4	25.495
833.06	29.206
572.55	31.257
324.89	31.385
322.34	30
530.85	26.173
735.06	21.541
870.45	15.556
935.94	9.434
935.52	6.4031
884.11	6.7082
794.57	8.6023
666.93	9.8995
523.12	9.434
368.01	8.6023
222.03	10.817
117.09	13.928
