9584389	225
8988361	242
8426909	265
7884521	296
7350562	337
6869930	388
6375337	397
5932261	416
5485313	488
5039609	484
4602641	538
4177000	554
3769417	593
3353608	584
2952080	610
2564005	625
2202724	648
1864201	656
1563458	637
1307650	650
1104346	657
968256	612
904378	585
921674	576
1028893	585
1241357	554
1546178	505
1960264	500
2471760	468
3078770	452
3792290	394
4584290	377
5435986	320
6368858	292
7353305	265
8332586	257
9358164	226
10359450	178
11324210	169
12263401	149
13115314	128
13878196	117
14540650	97
15099498	85
15513650	81
15825713	68
15957946	73
15981620	61
15848842	61
15549553	65
15140461	68
14631530	64
13961792	65
13220836	73
12405869	80
11528245	85
10604434	85
9645826	89
8676425	90
7742249	104
6787496	100
5896228	101
5038882	109
4237712	97
3536213	89
2875330	98
2291906	85
1797242	89
1376392	90
1026632	85
750193	81
533377	65
378437	68
272434	65
207409	61
174554	50
170260	45
182585	40
207076	37
243725	37
275810	29
304025	34
330290	32
343485	34
353450	29
349057	25
336442	26
317421	29
291924	25
260420	32
223925	34
192818	40
155912	36
127125	37
99152	40
74306	34
56250	41
43481	41
37474	45
35957	53
38981	49
45205	50
52553	53
62180	65
69556	61
79213	61
86816	65
88349	73
88978	65
87545	64
81281	65
75073	73
66916	65
57445	74
49757	72
43156	74
39005	65
39349	73
44980	65
57338	64
72882	50
97344	53
126440	45
163154	34
205445	41
250037	32
301648	25
354933	20
406810	17
461188	10
512665	9
555669	4
598274	1
630760	2
658762	0
677801	1
685508	1
682058	5
675737	5
657049	8
633681	13
599554	13
559997	20
519490	17
469625	26
422909	25
370817	25
324433	37
275069	26
231845	29
195962	34
158629	34
129746	34
106730	32
89044	32
72692	25
64532	25
59449	25
58196	20
56825	20
61081	20
64549	20
70613	13
73940	13
77285	13
76738	13
14252545	169
14625482	234
14763545	325
14555097	424
13992221	520
13102105	613
11838058	709
10350221	820
8655796	905
6841424	970
5067970	1093
3423940	1138
2032592	1130
956666	1165
275929	1160
16010	1109
175474	1073
712528	985
1565929	949
2648221	850
3818557	730
4987085	650
6018058	533
6817145	442
7300138	356
7442125	269
7207361	221
6622613	162
5756413	128
4680657	98
3542450	85
2463397	85
1577890	100
1029197	113
926069	128
1338937	145
2340601	149
3921796	180
6044560	185
8666884	200
11643994	196
14836680	205
18106292	205
21271300	202
24161002	202
26670109	205
28589716	173
29901625	197
30526288	194
30364552	185
29552002	181
28108417	205
26053354	205
23612978	226
20863981	212
17965445	218
14998985	221
12139970	225
9468520	232
7115140	234
5078785	225
3429266	234
2147170	221
1234885	208
677205	181
384929	185
311720	146
403624	153
594610	122
821061	122
1047124	109
1232557	80
1361984	74
1411829	72
1387370	52
1293365	45
1148717	40
974066	37
768640	37
585209	29
409364	29
263133	25
154125	25
78292	29
42121	26
34085	25
49205	26
77690	29
113018	34
145490	32
173633	34
192265	40
195170	50
191552	50
181145	53
157922	52
139445	61
121034	74
110034	73
103765	68
107860	81
119464	85
135013	80
156020	89
173906	98
197825	89
215360	97
221409	104
222650	100
219565	104
206405	97
190600	89
170834	85
151121	85
135941	80
123170	73
115645	65
116068	64
124576	50
140456	53
159493	45
187513	34
218522	32
250969	25
288041	13
322501	10
360200	4
397610	4
435725	1
474244	0
512821	0
548426	2
585680	2
620381	5
656405	10
685649	10
709618	17
724690	16
734978	16
732258	17
722693	17
697289	17
657365	13
615565	13
557401	13
498760	8
432640	8
367434	5
301085	5
244570	5
195593	4
148553	9
115333	9
89973	16
73993	16
61745	26
56180	26
54881	40
54484	45
53860	52
52754	50
49865	50
45802	52
38917	45
28649	45
18801	40
13932557	178
12853810	290
11693128	416
10483796	565
9333833	680
8316113	800
7418596	965
6692065	1044
6067048	1138
5480813	1226
4893085	1181
4253330	1210
3538336	1156
2726530	1076
1885801	1013
1090970	949
447253	872
71080	776
71282	725
529448	641
1462388	577
2855581	530
4587525	493
6513905	477
8419240	425
10096101	370
11309512	346
11881522	313
11721553	244
10781114	208
9182617	157
7086141	97
4789780	73
2624625	45
937690	41
67076	50
282850	61
1758445	98
4536965	145
8549917	170
13581773	221
19259668	260
25208840	293
30958756	325
36037033	346
40129101	346
42823305	373
43995250	401
43613765	386
41620405	410
38376400	425
34126900	464
29157076	445
23954578	457
18838376	424
14124545	450
10011178	424
6697525	386
4211213	324
2556010	281
1593793	218
1211866	181
1219490	130
1465760	97
1811610	53
2097058	37
2254354	20
2277673	13
2139290	18
1867469	32
1518800	61
1136506	80
784340	109
489229	122
281465	125
162605	157
133058	162
172945	157
251125	178
357161	170
449021	169
516625	164
557050	149
553172	153
525925	145
465896	137
392569	130
317993	117
244368	90
180949	81
127858	85
91737	65
62504	61
44861	41
31040	34
21456	29
16241	26
14045	16
15977	16
21866	16
30098	25
40820	26
52625	26
63730	40
69200	52
74484	50
74434	61
64800	65
55117	68
41050	82
27245	82
15650	85
6845	97
2050	89
565	98
1009	100
2466	106
4145	109
5140	101
7650	101
15129	109
32170	106
62240	98
113621	89
192497	68
297245	64
434689	45
599085	41
775298	40
966241	37
1153898	41
1315898	45
1451050	49
1539488	73
1582082	85
1568465	89
1497505	109
1378093	121
1228617	109
1050724	117
865021	100
683693	90
505513	81
361600	58
238996	41
151834	26
88829	29
52021	34
32996	37
27365	58
30500	85
33961	106
36965	125
38317	145
36945	137
33633	149
31761	145
31509	125
32482	85
35209	64
40165	53
46685	20
53698	8
56178	2
55120	1
48617	9
15210637	260
11114132	370
7571088	449
5109490	544
4109305	613
4577360	697
6129769	745
8252705	776
10246457	820
11501525	904
11636593	965
10586621	1060
8575300	1082
6016365	1156
3553128	1213
1696745	1252
855440	1165
1166105	1105
2484610	1060
4441000	901
6491466	745
8184724	578
9105748	442
9138265	337
8329282	250
7006185	170
5590825	136
4422544	146
3818557	146
3818953	180
4298717	208
4929556	221
5314052	221
5152717	193
4308617	169
2878577	148
1325332	101
267266	64
446441	49
2548049	37
7003945	53
13870445	73
22778825	104
32903316	169
43166201	205
52367764	289
59258432	338
63014425	405
63152820	445
59571605	509
53005012	610
44266050	656
34409129	689
24701561	729
16097069	776
9295074	808
4597024	801
2045777	725
1236274	680
1662817	565
2682065	481
3786917	389
4531509	265
4732226	178
4392026	100
3588938	45
2563210	17
1575625	16
792805	41
325832	85
193986	148
321610	193
599789	269
887410	325
1080685	362
1124345	410
1011620	421
788114	424
499922	409
254500	425
89021	377
36413	377
99346	340
241370	298
424265	260
586709	244
697393	185
734450	170
694345	125
597853	85
463913	58
335738	36
214180	13
129440	5
67636	5
39469	13
24361	25
17749	50
11521	73
4673	100
290	136
2440	178
14578	200
36788	205
65165	200
99124	205
127513	200
138445	173
139016	157
122833	113
96010	80
68405	37
41242	16
23668	4
15481	4
14804	17
17693	49
21410	90
22050	149
21349	185
25181	250
40265	289
75458	292
142409	317
246313	306
385666	293
563924	281
766189	265
972145	261
1176170	257
1360609	250
1501714	260
1596968	325
1636325	325
1632482	365
1571461	388
1466884	401
1318837	410
1155976	394
973426	320
786029	290
612130	232
441649	181
304690	153
191810	130
115645	145
65482	148
44320	160
39328	181
47737	205
62730	197
72833	185
78761	170
79489	130
75668	116
69026	64
64090	37
63904	13
63874	1
65925	5
67213	16
66053	37
61345	58
51140	74
34037	74
17397	73
15110856	397
13097417	577
10883645	689
8664644	785
6775249	845
5463725	821
4868338	757
5072465	701
5905517	685
7031897	677
8051328	730
8562061	850
8290769	1010
7110701	1193
5329337	1300
3383033	1405
1895237	1402
1460034	1352
2422660	1192
4777700	1025
8087665	820
11629405	610
14467833	424
15891242	296
15400226	185
13110610	136
9621701	125
5771088	116
2632968	160
964730	194
1106386	218
2795306	250
5231417	265
7407770	260
8392905	221
7615700	200
5321377	145
2394593	90
290285	34
625645	10
4747405	13
13250305	50
25725136	117
40797220	194
56266210	324
69693073	449
78776360	549
82018292	673
78938945	733
70123397	865
57374100	890
42858945	925
28721890	909
16927444	905
8532002	785
3786292	709
2186144	578
2731408	484
4218282	349
5639609	245
6269594	185
5952449	128
4794512	113
3257813	117
1829285	97
830746	85
437200	65
587012	34
1063621	13
1567624	5
1888129	18
1884020	68
1584130	148
1088090	250
579989	389
191945	538
31841	689
95236	765
308642	873
579681	901
777857	925
848905	900
791360	877
614132	848
407466	724
213485	610
93844	493
62189	400
103210	305
182069	205
264609	145
322205	100
334205	98
319537	122
271897	149
224725	169
186601	226
161921	233
150265	233
140324	229
124730	212
101032	185
72477	117
42865	73
19445	37
7400	26
7501	20
14810	34
26401	58
37633	104
42568	122
41225	125
36733	128
27297	106
18649	65
11565	37
7229	10
4772	2
4426	17
5445	58
6917	113
11777	218
20413	293
41201	349
81385	394
150093	442
267472	441
439688	442
669205	433
960692	445
1298754	464
1636000	520
1945705	545
2178945	578
2315716	613
2300202	676
2144873	626
1855129	605
1495429	549
1104281	477
727957	409
427354	296
203633	245
85381	197
48869	164
71321	169
121841	173
172933	185
199273	193
201424	173
185530	153
145949	136
106349	98
72085	65
44581	40
25601	17
15025	10
9389	8
6120	13
4825	20
6649	25
10909	32
19204	41
26605	34
31909	34
31025	29
15941465	289
18161384	500
18229261	685
15480229	953
10635661	1060
5407253	1108
1840689	1061
1385812	970
4205045	788
9111434	592
14070209	545
17126209	585
17208610	745
14431050	1025
10221489	1314
6327698	1600
4180685	1765
4304180	1810
6115600	1625
8358818	1321
9781949	985
9783236	596
8545698	338
6970237	128
5941332	73
5997025	100
6869512	196
7729525	298
7695973	338
6329938	346
4015681	290
1792548	218
798164	137
1634377	97
3955165	80
6450820	89
7596616	117
6463976	137
3442000	145
531325	125
760994	80
7097337	34
21058420	16
41814856	34
66019805	116
88683140	257
104481092	449
109643561	650
102959797	928
86134754	1160
63603026	1413
40447304	1553
21153458	1649
8529721	1565
2946241	1409
2787392	1193
5405629	901
8156705	562
9323818	290
8462545	90
6113000	5
3454496	34
1459906	130
673501	265
968929	346
1777597	405
2460265	401
2628245	317
2212090	241
1453250	208
742276	226
338792	340
328226	500
558952	769
808921	1000
874565	1229
712465	1412
409730	1490
128885	1394
38176	1325
173821	1154
469289	964
797417	765
981194	549
973600	388
761725	225
454085	116
180745	61
24820	25
16465	13
122305	13
271186	10
393805	5
459785	5
453985	5
409658	26
358612	61
313853	104
280100	185
244178	265
195337	325
133648	365
73525	356
26725	325
4250	260
5245	160
21386	98
35136	26
41428	0
37381	17
26269	61
16580	130
14642	173
16129	208
20441	193
23461	170
24089	97
23720	41
25925	4
28933	13
27781	65
23481	164
13634	274
12548	400
39617	521
119825	596
277352	634
512570	610
805892	656
1137781	634
1467080	676
1740749	666
1951540	738
2072594	776
2133602	802
2093312	793
1977266	745
1776314	637
1506740	569
1187856	450
831042	360
510626	242
241145	185
79108	130
22765	113
55777	104
140706	104
231669	100
283474	89
289210	109
256217	100
185522	104
117193	106
60938	113
24961	89
6697	73
965	36
2036	17
8989	2
22105	1
42786	17
65810	37
86858	65
93092	98
78853	97
50180	82
17361362	80
15846800	232
13137241	493
9957722	925
7101025	1348
5064821	1586
3976400	1690
3833813	1445
4564025	1000
6063985	521
8103437	250
10194418	293
11550500	692
11451665	1300
9846020	1906
7362442	2269
5373794	2225
5309704	1970
7723810	1448
11897396	981
15962490	584
17878409	353
16387949	261
11994133	261
6594916	245
2749529	193
2094509	125
4486381	109
8093105	178
10390433	250
9737954	356
6333065	365
2255650	305
81194	200
1363730	82
5443666	26
9742090	50
11245892	98
8614642	180
3570305	197
654785	185
5414546	98
21459769	29
48227042	2
80444164	72
109766321	250
127701845	538
129180929	900
114128704	1220
87400657	1530
57139402	1709
30790349	1810
13102097	1685
5036522	1481
4190209	1205
6659945	865
8961649	577
9245113	360
7530893	193
4982149	117
2834225	74
1814818	65
1788893	80
2196949	106
2439873	130
2225906	185
1698112	212
1169893	205
881161	181
855752	145
977300	145
1037906	234
957554	410
742856	738
517280	1160
348093	1588
274565	1993
247592	2249
217522	2290
205857	2138
227464	1850
331937	1525
525050	1073
708922	650
805076	333
725861	128
502937	26
237177	13
44644	65
6749	137
125645	194
326962	193
514090	178
627421	157
630440	169
568490	212
485473	325
405577	477
326345	593
237010	666
135841	677
47701	585
3185	461
17425	290
74033	149
141293	29
173225	1
147137	26
93274	98
41346	137
36788	148
83745	136
166352	100
234693	58
272644	29
274865	25
256520	41
234625	58
220042	50
194242	36
149125	17
96808	41
78248	106
134186	205
297305	377
539545	514
799850	657
980100	754
1022113	802
959225	890
880645	884
913538	986
1162165	970
1619172	953
2197226	949
2680218	866
2904010	725
2757077	586
2279348	461
1605236	365
900250	281
368469	202
66050	169
7380	122
104085	113
247105	109
353800	104
377689	113
319369	106
225145	104
132210	100
57517	85
19408	90
6197	100
7605	113
13480	90
20089	64
29033	34
37330	10
45445	10
54185	34
57325	81
55805	125
45305	149
26570	125
9797	85
21942560	314
14504212	400
7823140	466
5161789	584
6457960	754
8793396	1058
8976442	1285
6302293	1433
2891088	1312
2034185	985
5472772	530
11866509	245
17696897	328
19740337	850
17438248	1717
12890777	2512
9376450	2920
8933693	2797
10973005	2152
13221506	1313
13522372	512
11537730	145
8538970	121
6372389	293
5779844	457
6190769	445
6435905	290
5854810	106
4886698	40
4359060	145
4512665	340
4646977	505
3841605	544
2079124	404
713609	194
1394402	32
4472450	9
8026353	97
8966824	221
5852914	305
1254634	281
1993554	181
15636130	50
45461741	2
86912765	74
127952114	274
154062845	585
155413690	900
131644570	1220
91966157	1530
51060725	1640
20960125	1737
6658004	1690
5304433	1521
9511840	1301
12400705	1000
11070340	733
6870890	405
3070345	181
1911106	50
3188693	26
4987161	82
5354245	178
3850621	233
1643938	250
300170	200
608525	153
2018704	74
3252429	34
3284738	16
2172820	18
748421	40
23752	130
328960	362
1206333	745
1854217	1285
1754226	1853
1030514	2441
298792	2861
136564	3005
671905	2837
1502516	2509
2092037	1921
2036330	1306
1444680	772
672365	365
140138	193
20794	242
202900	386
437121	541
537921	657
472369	697
307940	676
167149	625
89777	625
84393	730
120833	841
172013	1024
232352	1066
277650	936
285962	746
231844	482
137257	197
44200	52
3985	1
30740	40
96077	113
138025	148
131170	116
78425	61
32162	13
35122	10
98005	68
185120	153
259172	221
292889	221
298013	153
285865	72
277330	10
253705	13
202865	85
135874	200
97325	281
139801	370
301274	377
558617	410
846436	416
1059769	466
1125477	549
1068296	610
957780	754
923717	882
1080580	1010
1461245	1145
2010749	1160
2546090	1060
2892308	865
2883905	685
2498420	449
1836617	290
1062269	194
433405	130
69845	136
11290	122
158413	136
354185	146
478465	148
465617	145
343709	137
194276	100
79669	68
19240	50
10834	82
23461	116
35186	145
35725	169
30665	104
25405	61
18824	29
15317	37
20749	80
33490	148
53140	181
65700	160
58321	101
34493	45
20758258	292
16418384	442
10908949	509
6764290	650
5276969	785
5842145	1013
6642074	1250
6267365	1360
4749097	1305
3597700	962
4597416	569
8184553	274
12838337	325
15958881	788
15958196	1636
13334225	2425
10697128	2837
10770282	2725
13980361	2132
18105778	1345
19614472	613
16645978	162
10400737	82
4606682	229
2565749	404
4784072	481
8581554	365
10393160	170
8668138	41
4906778	82
2078765	257
1906402	481
3401505	617
4143409	509
2972500	325
1214914	100
1486405	10
4524257	101
7703901	306
7277841	481
2812100	509
517985	340
10953265	170
41845840	49
90637585	145
142536420	458
176789762	962
178186849	1370
146048962	1690
94463186	1781
45055746	1625
13797250	1394
4403530	1089
8953025	1000
15425194	949
15974969	1000
10388530	986
3812000	810
1100258	485
3085480	197
6694090	17
8274661	80
6441097	325
2873600	578
362365	666
379341	577
2220109	365
3940285	144
4106485	58
2709953	34
981370	41
62401	16
285514	16
1068160	185
1609945	629
1493449	1405
909460	2450
293114	3501
6857	4010
125749	4205
495028	3860
897898	3061
1181000	2117
1205122	1226
984337	586
588034	232
207316	178
12170	265
51629	421
236525	485
412625	485
466468	409
381457	346
252085	293
139738	265
99977	324
119821	421
173797	592
250757	745
315250	845
332456	800
266053	685
145529	450
42632	193
30193	50
115362	20
229849	125
270725	225
224680	289
133792	221
104373	101
170125	20
299665	40
394745	194
409445	373
350073	461
265445	377
180869	233
111773	117
50265	125
10244	256
1681	450
12114	585
14401	521
18217	356
116345	205
444293	148
1038586	226
1706785	449
2128041	773
2005105	1089
1377833	1476
696770	1681
555705	1768
1293561	1517
2683553	1165
4035265	697
4597381	337
4061581	146
2741065	170
1268200	272
311405	386
57922	433
276037	404
549569	369
591700	328
402084	244
159421	121
36401	25
67124	4
168381	80
220816	218
193925	333
120020	365
51620	265
20410	146
23944	40
48976	10
88841	26
132068	40
167985	32
165461	13
129834	26
71705	80
19381	149
1250	145
7259204	356
6622513	625
4966250	778
3357160	800
2383517	720
2029625	617
1953373	580
1897640	698
1741072	754
1347076	650
732533	346
542642	61
2203461	61
7256002	505
16025732	1234
26464061	2005
34643421	2305
36886228	2061
31835234	1538
21727264	882
10898005	405
3264370	137
195241	65
402233	61
1488890	89
1806561	145
1175464	193
370913	173
10361	97
98698	10
299648	29
412442	194
539986	410
837785	577
1272569	580
1722132	365
2048113	164
2100562	85
1598985	208
648986	401
701440	549
5432705	500
19796000	325
46941269	121
84313949	82
122088424	281
146501800	610
146517193	986
120760576	1332
78858013	1642
37252900	1885
9552005	2041
313081	1945
4036370	1690
10692200	1313
12709073	985
8865421	661
3168745	485
109625	305
1051849	128
3905320	10
5625594	26
4801576	221
2507410	445
607465	610
96730	625
498970	461
804010	293
603044	193
356850	185
635144	170
1340429	89
1783090	8
1435853	106
572245	592
128330	1530
743048	2797
2146660	3920
3388244	4772
3544601	5018
2675745	4453
1531069	3393
917800	2173
964778	1125
1218385	461
1121837	145
630877	149
134810	229
32932	296
298400	325
555725	290
507464	241
279154	218
230420	241
561224	277
1059929	409
1272749	596
990761	765
430505	898
94777	873
257049	778
697442	586
956930	324
741465	130
271445	36
1585	10
224449	53
740296	117
1083650	170
922532	164
428810	104
100493	34
322792	8
1000372	65
1625220	212
1726506	377
1234466	493
510082	425
53584	272
60457	197
335264	281
514361	520
411245	788
190349	900
167994	674
560045	349
1240313	90
1863377	153
2061117	580
1736521	1205
1072661	1828
426010	2176
116306	2285
270740	1962
816776	1513
1525609	928
2190409	405
2583641	100
2615197	41
2304730	265
1714297	585
1047370	881
500816	922
215290	797
202725	522
326500	221
410906	45
351220	2
174058	61
25250	144
48052	181
249812	173
489850	117
581722	68
449640	26
203589	5
42809	5
94817	20
314170	29
513305	53
534077	80
355525	90
134885	73
9736	45
29345	17
105265	8
59083589	40
69792552	197
72580082	410
66689737	578
57470213	584
51336452	405
51021457	145
54937130	37
59765058	73
63105253	173
65355434	244
65872845	212
61882025	170
49872413	298
31102957	697
14682340	1205
13379977	1573
34477178	1636
71604196	1360
105618889	904
117207725	424
100043305	164
66896714	85
39880409	100
35001065	109
49692033	101
66776905	53
68704936	50
52214461	104
30089632	221
19687993	305
27652274	289
44593370	178
54064069	89
46701338	117
28737725	296
15657505	585
18042593	808
31809845	793
41206113	617
33982480	325
14101840	130
1395472	200
17513602	493
68028232	890
135161737	1145
187532098	1229
199653604	1076
167133940	873
107958980	785
50330689	810
14769512	970
5347688	1189
11807882	1189
19880698	986
20859346	626
14809049	306
7311460	100
3062410	52
3000113	73
4677394	97
5253317	104
3856250	136
1692090	202
482578	298
895973	449
2276573	617
3366666	793
3535397	801
2933297	676
2409857	436
2532465	113
3327208	26
4208429	333
4484948	1066
4203685	2138
3562885	3250
3147365	4276
3162889	4672
3256625	4573
3016477	3825
2194426	2962
1153780	1882
334724	981
161290	461
513973	146
936484	50
1080469	64
935656	113
850050	170
1024208	221
1328321	260
1408653	325
1041800	425
444481	544
112724	674
372385	769
1052705	829
1640437	797
1700885	676
1254178	505
710042	353
474984	232
588757	116
767978	45
779149	17
587018	5
448969	5
501485	9
670249	18
791690	37
833384	50
1039061	50
1579221	68
2373460	100
3054050	193
3184282	325
2826130	458
2349136	548
2176525	592
2259764	697
2245514	829
1804725	949
1170548	937
1075225	676
2045250	317
3689181	45
4959140	97
4863437	592
3324218	1417
1441765	2313
577649	2896
1200706	2932
2518405	2405
3155396	1570
2371801	720
843290	181
12137	90
919385	338
3217721	666
5506505	785
6412325	765
5797485	545
4501141	320
3761460	157
3954938	49
4588420	25
4815421	26
4307441	20
3602317	18
3409853	25
3965188	40
4768226	64
5015405	100
4464925	125
3487634	106
2840825	85
2859193	74
3177985	37
3255253	18
2733593	5
2003977	5
1566580	20
1793546	37
2460800	61
2978665	65
136376272	40
152286073	101
176387444	261
199780565	452
210139009	554
200892085	578
179338660	450
165183565	250
174713508	104
204733737	74
233766965	164
234148378	388
196099097	729
135960050	1125
88413165	1530
82346564	1765
119252285	1714
173416500	1325
210195973	797
209085988	320
175164749	73
131032549	10
97923202	41
81958410	101
75466064	117
66642921	97
51866657	49
35318725	25
24064690	50
19723093	109
18311085	149
15125128	170
9221186	181
3654306	196
792898	200
363680	257
305973	325
377897	360
3056288	360
10228025	313
19367410	292
23702377	362
19600292	565
12224826	785
15425050	901
41764333	925
90253269	784
142718693	586
173261122	410
165431528	361
123498002	505
70953970	730
33427360	909
23481653	985
34569901	850
48678298	650
51075137	394
39480409	245
22942496	200
11806325	185
9890218	200
13033645	197
14646001	162
11799586	109
6637285	101
3187673	205
3352865	421
5490781	692
6793285	965
5783290	949
3382745	653
1315885	250
428040	2
244037	265
208161	1165
603025	2500
2206184	3920
5107090	4981
8050549	5353
9204808	4937
7920181	3881
5213968	2645
3199226	1465
2923202	725
4035229	260
5026946	82
4912848	25
4188868	25
4064080	68
5171549	194
6711137	337
7191229	500
6004402	656
3729106	680
2225557	650
2563381	580
4365530	468
6018289	425
6242381	416
4845620	458
2939194	493
1870117	505
2007073	490
2708996	397
2975549	290
2500933	148
1623425	50
1112228	37
1279016	65
1881108	74
2402705	53
2403901	13
2008458	4
1530365	34
1279345	81
1312637	146
1492325	221
1603565	320
1507418	533
1216592	810
761192	1250
332345	1700
127364	1906
332597	1665
1001925	1025
1908548	410
2623465	144
2836714	500
2492125	1325
1876277	2210
1454105	2809
1448693	2825
1766585	2329
2068628	1525
1947501	785
1321290	292
557698	169
281930	233
985717	325
2731976	328
4927364	314
6732081	340
7488970	425
6886577	466
5466260	458
3965573	370
3063937	170
3006170	40
3344237	4
3671042	64
3567445	185
3006964	229
2352617	202
1798634	122
1552244	50
1537345	50
1558600	89
1515137	130
1295834	136
959282	101
668746	52
546085	13
631669	2
929773	9
1291984	26
1560325	41
208412386	100
233051330	85
249036833	145
252210452	296
245136649	466
234273973	625
226614746	578
226955745	436
233902661	197
238384584	65
232023853	164
208978745	442
172343925	900
132059825	1413
102147748	1737
93298564	1940
106753954	1714
133954074	1210
160192008	689
171434250	277
160653722	50
130954660	8
92973893	52
59145209	109
38144500	146
30486977	117
31050500	64
31918090	16
28392805	29
20126717	82
10522898	162
3571357	196
756058	244
929440	257
1787437	290
2566525	325
4580992	313
9272250	298
16189066	250
21837050	202
22068317	277
15376360	450
6678649	746
4968749	1009
18799353	1138
49833061	1037
90157581	800
125321256	468
141410441	245
132634994	178
103620577	325
67167490	557
36406561	754
19135400	801
15418925	661
19293028	370
23580448	157
23618509	68
19125280	101
12417866	157
6439394	205
2928605	225
2040341	225
2836490	202
4034210	173
4718905	193
4623890	261
3888001	386
3228116	549
3073978	577
3581901	482
4464980	277
5200577	128
5304098	337
4624981	1117
3641954	2340
2577145	3593
1805476	4685
1396993	4913
1277189	4546
1414148	3562
1653301	2465
1870580	1588
1746877	981
1353290	689
927009	485
912661	288
1700185	130
3141658	65
4611386	81
5332265	180
4930669	261
3864164	370
2802241	500
2559316	685
3205250	916
4275245	1018
5011794	1021
5053770	884
4458106	754
3641557	533
3064004	421
2814650	328
2684530	221
2447777	122
2116096	49
1764130	50
1578980	122
1543716	225
1611796	212
1699065	125
1693493	37
1658938	10
1633365	53
1684889	100
1813225	68
1996921	58
2147125	193
2107058	554
1834930	1124
1373725	1753
948821	2245
858600	2248
1236274	1696
2041121	900
2918693	272
3393250	250
3276065	866
2610205	1746
1822517	2548
1300513	2825
1121809	2594
1138589	1865
1089640	1076
809640	485
361034	146
77285	90
248978	157
981370	208
2124301	196
3300772	137
4165218	164
4503229	245
4187088	349
3441925	424
2554985	388
1889397	265
1726696	113
1978810	25
2558394	50
3099634	136
3342289	205
3266125	153
2901652	65
2543977	13
2359946	36
2404148	98
2556801	170
2607265	193
2404852	169
2024986	85
1662280	25
1447730	2
1566856	34
1950544	97
2407501	130
237927080	146
262549348	218
269646824	340
259624269	468
242363745	601
229551577	601
227863368	520
236456676	260
246534445	97
244853258	74
224946848	225
187934881	445
144160740	730
106936714	1009
87270098	1217
89012925	1321
107066765	1354
130867426	1138
148936225	829
153402320	485
142248213	241
119786625	64
93593690	13
70804072	68
55656082	193
47056090	296
41704189	314
35359425	256
26899137	234
17588405	232
9942853	202
5673064	125
4033000	49
3258869	8
1916648	26
1087234	116
3072082	313
8901477	625
16626545	866
21629525	965
19880125	965
11305625	857
2138000	725
1512212	505
16470065	298
46835165	232
84352445	233
116130512	272
131090612	274
125009000	193
101641805	85
70443785	29
41051629	146
20114189	442
9699965	754
7968706	841
11231098	625
15610088	305
18391385	50
18080261	29
14724970	333
9587005	765
4753489	1105
2129485	1082
2400770	725
4839922	360
7786193	197
9421729	289
9160082	466
7228313	545
4721050	410
2712653	194
1669725	317
1433380	1105
1568906	2440
1916648	3893
2349770	4706
2999120	4698
3811426	3965
4421537	2813
4489690	1765
3746045	1066
2460725	865
1148996	962
632692	985
1225269	914
2676565	730
4288930	482
5225477	245
5109970	97
4168946	64
3064100	117
2561425	226
2747285	356
3418130	521
3957760	577
3998345	549
3492322	409
2795281	265
2242210	212
1980122	314
1980874	500
2037620	676
1925010	712
1602842	617
1202722	404
836125	157
690516	25
826004	5
1272938	29
1988505	65
2724520	61
3323330	37
3579346	13
3508090	25
3209956	136
2852282	377
2486196	697
2082313	1089
1651777	1300
1212544	1314
810857	1241
550225	1053
401645	754
410114	533
582605	466
946625	733
1534081	1170
2202577	1629
2770760	1960
3018193	1930
2782385	1684
2161673	1277
1483450	833
1008745	392
878737	104
1136137	5
1680185	25
2371330	65
3101641	40
3674240	20
3973520	13
3935720	52
3528676	160
2925568	290
2327760	389
1868962	445
1615508	325
1401658	205
1344545	72
1521305	25
2044781	8
2969458	4
3950965	10
4678754	25
4810948	20
4308264	13
3401282	10
2486569	9
1844005	13
1620800	26
1782625	25
2028960	29
2229085	9
2279133	5
2149325	13
235018121	226
255231236	314
269433018	400
276042845	433
276053320	416
270148097	386
258250957	313
241838788	169
222096500	68
198684170	74
174105281	225
149883634	436
128483381	738
111556978	1018
101061314	1285
98560100	1370
104369905	1241
117391345	962
134444281	689
150000509	458
157288136	290
151614900	125
131889361	25
102002440	9
69536584	136
41250757	356
21840565	493
11354458	509
7583749	405
7349284	296
8468386	202
10085762	145
11351597	100
11514176	52
9745096	25
6817313	85
4737881	392
5377949	898
8765514	1300
12202209	1421
12137425	1305
7209185	997
1278740	605
1738665	370
15506369	340
43526953	450
78948185	450
109481060	305
123950954	130
117894653	8
95437906	20
66272089	169
39916097	356
21603600	442
11638525	370
7262996	265
5936377	122
6684961	41
9434020	5
13581061	10
17406274	89
18865933	261
17022650	500
12917493	650
8467570	610
5385250	365
4118842	149
3790393	26
3524218	29
2955002	130
2609028	261
3075197	360
4389850	593
5803601	1325
6333010	2501
5734116	3842
4107394	4658
2320346	4624
1026713	3853
446965	2509
458138	1186
780418	557
1281890	740
1876753	1378
2632877	1874
3445997	1901
4148932	1481
4720456	809
5126069	289
5431589	208
5605189	500
5506681	845
5171345	965
4445194	801
3595364	500
2758600	272
2143769	130
1768345	164
1649218	265
1696804	288
1815458	241
1967645	178
2069352	130
1992085	101
1730682	130
1407940	170
1130929	185
1092970	193
1304680	242
1726612	218
2284778	153
2776357	64
3152905	13
3305041	50
3248820	145
2994125	325
2633941	549
2232785	769
1815764	784
1466713	720
1187290	666
955825	634
808785	657
681481	685
643381	776
706037	842
880178	1025
1209492	1300
1638250	1553
2135360	1602
2579810	1493
2756546	1300
2535629	1018
2007146	738
1346570	442
864074	170
889285	50
1534850	10
2616017	9
3770770	34
4520573	52
4640701	68
4172500	64
3310082	65
2426465	104
1747906	205
1373828	265
1286324	281
1327688	260
1566868	170
2005825	100
2640593	36
3436333	10
4102193	16
4484840	41
4415801	65
3955289	61
3249842	49
2527748	41
1921113	37
1532770	45
1432645	29
1480261	10
1673954	0
1953640	17
2223845	58
226804994	405
241148213	514
255557128	569
267907229	505
276503176	457
278141140	361
269572265	265
251149517	185
225348437	160
194372840	170
163698610	208
137090180	257
117809992	370
107173001	557
105625861	833
112317361	1125
124355272	1202
137726608	1090
147770485	765
150503305	457
143398517	225
127184378	82
104816101	52
80513129	45
58639613	26
41305106	9
29460484	73
21971890	260
17622740	541
14673424	841
11909665	954
9044149	701
6174481	325
4009042	50
2849540	73
2756680	425
3218580	1060
3691250	1685
3855221	1850
3564314	1556
2734888	1060
1308457	520
302209	136
2126992	4
10435221	125
28021669	325
54534740	442
84367970	482
108307097	482
117447257	410
107989892	260
83572840	185
53649544	173
28203570	145
13315284	81
8491426	37
9213010	8
10969108	8
11920868	89
13037417	250
15773345	340
19816821	452
22938649	514
22861813	578
18778625	512
12373677	421
6193850	340
2029754	244
270425	80
134105	85
908449	400
2372292	1013
4462193	1850
6596770	2824
7589561	3604
6869749	3805
4451770	3449
1830788	2704
605305	1952
1363621	1325
3421730	778
5247194	468
5769985	362
4765160	468
3228164	685
2062696	890
1691848	928
2047336	788
2798978	433
3711112	125
4667365	65
5434696	274
5795525	577
5350069	845
4361800	845
3226714	565
2560986	250
2463385	64
2708965	145
2819858	325
2558233	482
2144512	530
1869589	405
1785573	261
1754482	208
1574722	257
1197925	389
958445	433
1136122	397
1790578	290
2724660	104
3456553	13
3843176	82
3877765	241
3771661	370
3596125	458
3302573	520
2773121	522
2005817	485
1272692	410
798601	392
615645	449
605525	641
561125	853
568690	1066
829394	1305
1520293	1490
2544457	1649
3453961	1625
3826525	1460
3479825	1189
2551333	900
1493981	725
754493	545
469025	340
559044	170
942224	74
1530325	20
2280148	1
3125425	10
3846937	53
4191805	98
4094989	146
3487090	169
2609513	212
1686500	244
982280	245
718965	196
963085	137
1782785	85
2983754	50
4226498	29
5192554	10
5504209	5
5168530	26
4347505	34
3352100	34
2441380	17
1761545	9
1344745	5
1191697	5
1361828	8
1708130	5
2195024	5
2635364	18
2880265	45
236196512	685
250690925	865
262159592	898
268797490	706
270358525	505
265441658	373
252757921	245
233813189	180
211294213	116
186741684	85
164057661	130
145374980	373
132277122	761
124627673	1130
122007188	1377
123203050	1448
126025874	1130
128533204	650
128981152	298
126328042	170
119906141	178
110107589	212
97703170	170
83932993	61
70159589	40
56891917	149
44922617	320
33965653	466
24431908	530
16284260	500
9620978	433
4791977	290
1781869	157
426565	53
216801	17
542425	130
821860	500
833170	1060
573736	1657
276394	1802
249421	1553
876040	980
2834813	464
7400194	74
16038730	117
29707434	450
48138260	724
68403850	802
85574450	761
94156785	656
90478981	521
74894749	520
52169185	585
29605354	538
14115065	290
8638209	104
11559977	65
18214898	125
23655242	305
25243124	461
23345492	544
20029949	514
17225290	666
15423460	932
13592213	1053
10809929	1000
6941701	730
3168329	365
1131073	53
1576093	245
3914368	954
6592338	1940
8083961	2725
7652021	3316
5631145	3482
3318985	3042
1461266	2320
612740	1762
617282	1346
1048193	1105
1546568	725
1912930	349
2176354	80
2337300	82
2559250	325
2892749	666
3306145	905
3808525	857
4254376	530
4557780	170
4599674	106
4369802	328
4039380	641
3592909	833
3262181	797
3018962	445
2917253	100
2838973	20
2755498	200
2566709	386
2223514	425
1804192	296
1392554	89
1041844	17
832402	202
837665	490
1030361	680
1413593	641
1905173	481
2391572	200
2839450	37
3040578	20
3025412	73
2751557	65
2385917	52
2075074	97
1959184	337
2008708	738
2092106	1220
2116309	1348
1954501	1301
1606537	1040
1201349	680
778760	410
543722	457
570146	776
855765	1213
1333205	1832
1852738	2164
2253749	2125
2432420	1682
2314997	1125
1976900	628
1599257	277
1281154	146
1065565	194
1029412	260
1172273	250
1487176	157
1996594	41
2621693	9
3227085	173
3657226	401
3674645	554
3243857	565
2469770	482
1660436	313
1201280	106
1290868	17
2041301	2
3197344	13
4361981	25
5219514	32
5441825	20
5097236	36
4319921	82
3365300	100
2463444	81
1707941	65
1208864	50
1027844	17
1256980	5
1743428	16
2409700	10
2983385	20
3272272	50
252948436	277
260033465	505
259886026	725
254182433	850
247139506	1018
240999956	1009
235037765	725
227882353	349
217277857	100
200105354	50
177635594	244
152745860	666
130475321	980
115278341	1082
110679025	964
116981800	745
130516873	404
145012232	157
153228586	53
149985466	90
134220645	164
110122525	244
84723305	250
64763716	208
53227442	170
47931901	153
44432041	125
38169133	136
28409984	181
17169994	250
7609664	274
2026984	232
209018	117
462722	106
1038001	170
1128069	257
810385	445
381905	677
89405	793
246277	801
1644010	761
5052788	709
10585417	565
17401645	314
24040733	80
29868689	68
36316165	290
45270569	648
57359754	1058
69863778	1354
77072866	1201
73740916	808
58484626	584
36027973	445
15435716	410
4666586	458
6822826	452
18517792	289
32279386	229
40955300	369
41290372	697
34370505	1130
24158626	1489
14527754	1600
7473700	1252
3299872	685
1152378	265
258569	64
178834	170
629725	628
1332817	1313
2085005	1765
2801097	2042
3427778	2197
3807026	2141
3898357	1882
3303765	1460
2201461	1105
1114961	900
620672	706
1156612	485
2556740	233
4285082	53
5562209	5
6136738	34
6032552	136
5445674	290
4728898	433
3943780	461
3237953	388
2676097	338
2318077	289
2262728	225
2349001	208
2583305	314
2907040	377
3364052	401
3876160	404
4332506	386
4414293	274
3917413	181
3001986	185
2000960	170
1232650	185
888346	306
918625	410
1083101	457
1274013	485
1463365	500
1669625	360
1971385	208
2177906	117
2264400	68
2210312	25
2236085	37
2514866	113
3059165	338
3626676	740
3844432	1189
3595300	1394
2939861	1220
2150536	832
1588969	377
1290697	157
1257989	445
1358050	1124
1424041	1885
1424228	2533
1364386	2581
1253185	2105
1134180	1373
1048445	884
1062949	580
1260829	450
1584882	388
1898405	296
2174533	200
2393170	109
2593013	61
2893122	25
3243080	25
3490405	80
3531802	225
3161637	360
2480130	521
1651858	586
963313	485
636290	289
714145	90
1228328	4
2046673	13
2997748	58
3970562	97
4700585	73
5094193	41
5020442	64
4444820	109
3521885	146
2429984	157
1538442	146
1147109	68
1454193	4
2220541	9
3176489	49
3816704	100
3858082	145
224882821	181
231258740	325
240291956	500
248164810	676
251665145	928
248130250	1021
237461138	922
223932285	533
211772084	212
201048545	9
190793249	117
177459652	562
159942341	1069
140241312	1352
124379666	1421
118098257	1124
122731117	592
134053060	173
143269850	50
142010849	193
126417501	481
99746138	617
70321745	530
47434600	337
36307232	146
35710069	50
39980005	58
41789313	121
37266073	144
26823805	160
14391981	185
5026730	225
1274120	314
2415796	450
5187713	488
6350786	450
4822465	370
1915600	325
415684	296
2303010	290
7570100	325
14109157	400
19534289	485
22977765	452
25269025	405
28441933	409
34342370	409
42664717	445
51216104	617
56885386	821
56992625	985
50706433	1025
39158402	997
25061957	809
12221092	450
3908453	170
2524804	50
8529985	73
20000866	340
32829865	765
42242965	1117
44449236	1268
38741300	1325
27537704	1129
15169741	730
5786802	369
1258821	257
879905	353
2440741	617
3685877	1013
3608932	1370
2688218	1450
1904409	1369
1809457	1305
2189277	1274
2463602	1189
2019125	1058
1053625	901
217981	689
107185	530
918349	349
2236442	170
3383720	85
3771805	50
3466634	34
2884825	37
2600137	117
3016850	277
3993488	445
5087741	468
5702905	520
5450400	485
4527997	338
3238560	260
2254180	241
1917889	257
2286824	226
2989157	241
3592297	281
3685096	221
3118820	136
2176420	89
1228420	101
637492	146
607925	288
1123700	433
1883578	442
2612977	457
3014569	488
2975074	464
2718113	425
2326337	377
2055752	245
1906372	65
1892266	37
1938997	265
1996033	698
2022397	1345
1939689	1768
1757093	1585
1469386	1096
1094249	461
789408	61
578322	121
555458	625
683609	1157
867058	1517
1059956	1665
1239460	1466
1456228	1069
1780420	788
2147765	674
2459368	637
2660965	485
2629890	292
2323721	122
1909873	61
1563341	101
1440049	148
1653444	160
2095105	101
2509348	65
2688698	136
2395796	241
1747076	328
1005677	404
500789	377
412285	194
663080	89
1126021	45
1674765	58
2340818	89
3338386	104
4553837	82
5772212	73
6444049	89
6120872	98
4854293	61
3043178	34
1531946	36
988858	34
1611668	41
2856314	68
4089482	64
4589540	52
4167440	80
232070728	298
224838169	225
226149365	314
237398922	626
253387144	1090
263573593	1530
258991618	1405
239922245	884
214187021	340
190769077	109
176758010	404
170785090	1138
166505445	1746
156921561	1810
141291072	1429
125556804	761
118063445	145
123213105	16
136680385	241
147122794	500
142590025	585
119001700	409
83066770	116
49201181	37
30339877	146
29934400	370
40834900	461
49701250	338
47219240	153
32926760	50
14597288	5
2327533	45
548560	100
5836673	233
10759300	545
10014605	845
4692298	1073
302625	1157
1756922	845
8780857	328
16480117	68
19364020	122
16818202	445
13836500	730
16519829	776
26977685	765
41258353	925
51634570	1220
52797188	1924
45493781	2465
35333138	2353
27924733	1765
24504554	997
21659732	305
15778738	29
6991037	50
494632	85
2642725	53
15379780	32
33676105	225
48222869	730
51282586	1312
41815208	1796
25588957	1945
10851749	1586
3036240	1289
1889050	1237
3489265	1282
4128077	1170
2715953	954
966193	557
962725	338
2985034	545
5377397	1082
6110933	1717
4821125	1906
2403232	1369
581608	689
106885	233
439060	121
705457	377
621569	656
821785	725
1944917	640
3982964	401
5959529	180
6730634	169
6096157	170
4880653	121
4343650	85
5075460	113
6466532	337
7416229	562
6859154	740
5123290	841
3198753	725
2238416	500
2556277	360
3580506	365
4283953	338
3948880	324
2703289	272
1256072	160
333010	65
302356	34
992528	40
1851394	65
2431773	170
2494010	404
2105386	641
1626484	725
1208516	629
1001125	389
919309	61
917473	50
972121	424
1101578	1025
1304306	1684
1446890	1954
1423610	1597
1175450	905
764585	328
470458	41
409153	242
585749	785
770346	1130
782788	1217
675700	1040
718216	765
1261385	482
2348125	404
3524813	500
4221416	593
4192189	541
3543209	306
2800661	100
2530865	17
2828900	52
3320164	185
3568682	314
3324485	338
2754333	325
2262905	288
1930617	185
1687562	125
1308785	122
775044	82
377044	50
442817	25
1136725	29
2209010	32
3188285	26
3859706	10
4150130	8
4354465	29
4543690	100
4532186	148
4034025	178
2889530	173
1516842	145
639329	64
864980	10
2054693	13
3634597	52
4615210	90
4479056	185
118143625	349
114103801	97
116326337	58
120960461	377
124627653	850
125392541	1394
122417288	1480
116087778	1145
106261762	850
93712392	740
81695930	872
74025922	1373
72178740	1658
73057274	1513
71483050	1096
64768258	493
56169994	73
53546977	34
63188392	173
83136545	306
102195097	313
107280797	130
91920692	8
62822413	50
35252821	221
23462708	405
31508801	389
50792626	250
67256861	97
70110801	80
58015853	269
38292509	493
20749469	650
11743642	765
11490929	697
16537216	493
22414853	325
26008592	260
25873381	208
21884186	136
15557725	73
8976029	65
4488002	45
3118553	72
4230794	181
5995546	482
6839725	981
6680425	1445
6440328	1960
6751333	2344
7164130	2176
6576665	1780
5020093	1421
4212529	976
6402722	677
12212456	505
19268665	245
24059848	80
23888610	53
19639888	173
15010885	613
13345634	1061
14796049	1664
16402325	2362
14969700	2792
9978161	2932
4126736	2890
1421800	2228
3320864	1300
7712890	490
10656925	41
9537680	221
5293633	761
1270418	1378
259925	1700
2267197	1525
4930250	866
5829050	292
4597501	25
3262993	130
3982369	466
7071437	685
10659181	738
12298906	612
11021236	360
8066810	160
5579129	85
5120100	100
6341285	101
7687445	104
7752485	136
6231745	221
4220021	250
2702605	305
2266708	436
2474410	565
2780753	592
2709965	626
2287402	554
1710365	388
1177993	185
734194	145
457749	145
485210	212
894005	324
1571400	324
2164273	290
2339140	298
2004857	436
1280936	533
580040	457
181442	328
159120	157
389857	50
646925	250
748285	626
621613	1021
374665	1325
128369	1370
57709	1010
229210	577
553865	353
781749	205
796985	281
622093	458
555165	580
796445	569
1385738	585
2048720	505
2370890	290
2174404	185
1601077	178
1002280	257
670132	386
613153	386
632125	293
527306	169
326890	25
159749	45
128840	245
194452	485
209377	730
132736	801
41369	584
97970	305
359890	125
697540	32
930289	53
1000808	73
1037954	82
1300322	50
1776938	5
2282074	26
2484781	97
2206210	162
1553770	193
837736	185
333442	81
100424	34
37402	13
79460	2
250244	5
618932	13
1191697	26
1672420	53
1763204	117
17724913	362
16593317	149
19874282	100
22986125	328
22831610	722
19852181	1274
16514372	1690
14698165	1818
13860002	1961
12223265	1845
8986933	1556
5372226	1448
3410773	1108
3787625	697
4950580	450
4696925	185
2554900	50
728008	13
2416417	5
8856986	13
17662736	4
24108082	10
24453917	17
18448641	8
9507329	4
2345753	5
102229	41
2932756	73
8680096	101
14426989	90
17848692	26
17796061	17
14389765	130
8824293	377
3389545	730
392130	873
1062749	788
4696045	650
9005461	314
11578058	82
11416325	61
9177137	221
6672784	421
5254985	493
5459569	500
7132744	593
10177549	689
14345645	857
18702877	1181
21601369	1586
21263306	1700
17379562	1828
11794922	1850
7599901	1570
7095665	1192
10096232	898
14145352	461
16850025	193
17541844	173
17664385	333
19038485	832
21651682	1421
23340025	2197
21380897	3074
15295892	3329
7411410	3249
1521962	2665
155333	1753
2808144	772
6490061	221
8227393	26
6926624	221
3894228	557
1222961	850
113369	1060
265040	962
614500	692
510602	425
132722	157
78130	10
604721	104
1391114	365
1944385	692
2072837	905
2033716	881
2082589	578
2182889	290
2107882	136
1756388	197
1415780	370
1565065	577
2280941	689
3112306	569
3363113	369
2706106	221
1541956	125
698312	65
749629	82
1584256	185
2530973	317
2873810	461
2508085	733
1783237	793
1157650	617
843124	461
687145	205
468324	36
200360	5
118285	53
417920	164
1032260	194
1604857	305
1796273	445
1498498	580
936224	765
438820	962
242113	925
390725	845
754496	829
1142621	634
1391981	596
1412242	530
1202546	410
936226	409
797689	442
955925	457
1369250	425
1848821	394
2121885	250
2031437	90
1650650	4
1219285	10
923842	85
794996	180
740818	170
650660	146
502340	117
382484	68
357253	125
417058	197
492509	245
527540	317
495553	353
422881	272
341765	197
260437	130
191665	53
130852	9
114658	2
121226	25
135293	50
153562	45
251005	40
502273	58
921092	58
1369000	125
1633237	169
1562525	157
1185301	170
722125	104
407026	37
287794	5
263780	5
199642	45
109429	74
134797	121
2437690	196
942785	117
985925	85
1836026	173
2573041	369
2773825	820
2717929	1369
2954986	1753
3664424	2165
4495060	2192
4836145	1885
4368776	1530
3355300	1125
2424109	650
2196000	466
2893810	244
4259965	122
5769194	85
6796402	17
6963890	4
6161000	9
4732137	32
3441085	58
3123850	37
4182952	26
6312770	25
8506213	29
9583922	25
8951354	34
6922618	58
4376749	65
2291585	61
1088602	74
699133	185
913972	394
1698337	557
3061834	689
4741316	729
6030205	578
6058100	250
4565405	41
2225970	45
398570	320
152100	689
1539173	1009
3570125	1125
5083433	1090
5668676	820
5844466	810
6500212	1010
7783112	1225
8840360	1413
8469008	1682
6467652	1640
4221893	1538
4190509	1465
8221937	1165
16143322	778
25466792	505
32578837	493
34766290	1157
31489652	2377
24369640	3821
16028260	4941
8929505	4825
4200125	3869
1933600	2561
1520405	986
2181610	185
3202101	5
3944768	202
3992474	424
3252533	397
2048065	265
935168	281
359269	425
370152	554
658346	554
837722	425
762329	145
562349	148
503333	450
687752	793
975089	1193
1085201	1060
872258	661
448370	234
88469	4
13568	157
233077	493
560365	829
752737	929
712996	698
497250	416
246052	197
75365	146
7957	225
9364	325
50660	530
127525	562
249673	505
405025	529
532624	442
582469	325
537505	260
432450	145
321525	53
253501	36
237133	73
240650	185
229429	289
194500	405
152401	549
131897	538
157625	544
219181	650
289525	712
334889	884
323528	1025
260273	936
169888	865
81637	697
20025	461
4122	373
36424	386
110905	445
205913	377
295789	317
352648	205
352852	68
301753	36
228433	45
165601	89
130708	146
120025	125
114178	149
92160	144
57800	130
28178	160
25826	144
52901	137
99496	164
147370	221
201625	205
282145	196
391289	205
518405	98
603026	36
614890	13
539680	16
436973	61
397120	90
495760	125
734705	157
1021609	153
1222605	170
1233440	197
1044625	145
720553	148
401440	85
199433	25
130320	4
161512	13
230525	72
299330	137
376532	205
2117933	104
1102945	106
626365	100
631138	185
721781	325
560276	673
200962	1192
274	1625
265808	2165
931345	2516
1543933	2357
1648881	2209
1154233	1666
424937	1010
11250	554
254453	181
1095557	34
2227140	34
3388978	68
4563450	113
5859877	65
7203905	32
8308240	5
8728708	26
8166085	73
6827938	89
5219138	104
3913832	50
3228685	18
3139625	32
3390570	116
3766309	250
4132513	289
4424029	296
4579609	233
4558216	90
4293697	40
3821005	97
3172457	178
2341025	221
1368725	205
484249	125
118625	137
685204	416
2196532	754
4051856	1277
5247394	1450
5111509	1201
3836666	829
2519108	397
2330530	425
3522690	1073
5024177	2353
5272885	3425
3702178	3626
1760881	3365
2443697	2117
8364442	1060
19517440	965
32482004	1844
41959805	3649
43623301	5165
36674210	5840
24221425	5650
11714266	3977
3430610	2314
776893	1000
2030740	197
4162457	10
4961666	41
4055857	104
2472020	61
1373913	29
1127332	89
1267213	305
1165333	562
671450	650
136825	709
28901	685
425924	557
982417	545
1237316	485
1011485	404
535690	369
134789	180
580	82
57154	26
110833	8
77669	25
41786	50
134993	125
374189	225
645200	317
779314	397
727124	442
585505	386
474325	245
433997	193
398344	274
285128	461
119080	613
13397	829
76385	904
301032	680
555586	481
675220	229
585157	41
354722	26
131716	90
25504	274
55080	405
164885	548
291625	772
394789	809
474266	976
508490	1105
482576	980
392717	832
253170	650
120785	445
35705	397
4132	461
1053	549
1781	541
7865	625
39208	481
107145	269
179908	148
222626	49
199300	10
127341	10
50938	16
9896	9
12250	2
36010	26
54917	106
57060	233
46818	324
36020	425
23125	449
8865	349
6409	250
34165	148
101621	40
187037	13
243797	25
242602	50
179785	50
108025	64
77338	41
107620	13
172901	29
237330	64
289357	181
360713	257
488714	340
674273	416
841633	320
889178	281
758377	160
516650	50
271144	45
179600	52
305125	160
577993	208
849017	260
5438225	72
5088338	104
3634394	61
1783177	130
472628	298
207274	801
816122	1546
1598617	2113
1876330	2665
1503962	2842
796009	2440
304025	2029
274280	1402
545312	776
757762	386
717776	130
577988	32
697565	34
1343093	50
2527601	72
3965141	26
5226440	5
6004037	4
6121364	50
5703328	90
5179105	80
5089409	68
5810429	13
7188165	20
8476130	68
8716114	149
7395849	260
4922450	197
2362842	180
817556	130
654653	100
1346909	98
2035669	169
2275237	169
2253901	89
2436733	49
2931242	40
3309986	130
3032578	361
2130965	569
1291365	898
1264185	1156
2085812	1066
2926261	853
2841554	605
1727545	424
513332	628
292244	1433
1206745	2260
2193850	2746
2109658	2925
1342381	2330
2283881	1616
7769156	1538
18479161	2180
31456562	3821
41195089	5449
42901961	6341
35566400	6280
23134420	4649
11272117	2810
4357480	1256
2798324	232
3817988	1
4196986	153
2746045	346
717085	328
39533	232
1396441	162
3598052	250
4769024	533
4049125	724
2177380	916
769896	873
770977	653
1775330	529
2547161	353
2247346	208
1112701	144
151784	65
143604	25
960305	26
1813321	52
1943825	125
1355282	162
584849	173
192125	221
263381	164
450365	125
422564	122
213493	122
133949	73
403322	65
874066	97
1148481	180
979858	290
502570	509
83744	674
41290	650
345465	585
697745	388
817937	157
659282	37
398416	10
205090	149
138497	325
141896	637
200125	925
370333	1033
705505	1213
1095968	1233
1331705	1073
1234610	884
817925	612
337901	298
54401	157
43298	169
163501	245
218228	377
158314	577
102265	585
203666	449
437517	314
631720	100
587561	5
329458	8
62096	64
18020	89
228226	50
494020	40
571397	82
386081	265
110164	485
4420	685
165274	793
446212	569
590857	373
478442	145
211250	9
22148	32
59986	137
255762	200
404977	164
354754	125
155741	45
17168	37
108037	100
399508	212
686821	325
759922	325
558658	313
251225	265
57625	157
100237	109
298849	58
466685	25
441817	29
240424	32
38250	82
33640	113
329625	144
9640260	8
9670505	10
7108580	26
3595177	136
1228565	340
1040386	740
2456712	1345
3869352	1872
3995029	2545
2792882	2785
1214881	2533
352589	2250
457514	1445
938405	784
1021924	442
573088	202
226980	113
830722	109
2646745	64
5077577	10
7079752	5
7821125	74
7309972	145
6175522	145
5207893	121
4857928	32
5058945	17
5430905	100
5565205	277
5313745	409
4691098	389
3846050	373
2912194	178
1976153	97
1141834	74
568420	113
485593	130
1116212	81
2520625	101
4379674	178
5992036	481
6551362	730
5642593	970
3581225	909
1381169	628
126010	433
237796	353
1177888	386
1915885	457
1762450	530
1005805	356
574405	250
1154740	386
2384434	730
3045997	1268
2230160	1874
578164	2257
490625	2525
4683425	3176
14114704	3770
26662410	5066
37842457	5945
43136770	6341
40325525	6085
31197010	4369
19586125	2720
9789856	1205
4021169	218
1935050	5
1763145	202
1836034	493
1585636	569
1370458	548
1710605	360
2556130	288
3348200	229
3478333	170
2810053	196
1728194	221
769409	265
274250	500
180169	697
234581	676
232805	610
157273	373
91792	202
88201	109
122500	85
126788	116
95705	65
93832	17
181498	16
363994	122
552676	242
649333	401
607745	346
452168	170
259880	41
110468	41
31657	293
19330	586
41053	901
55189	937
49232	661
44189	436
73888	193
154457	89
255505	113
310760	100
252361	32
116836	50
6113	320
58973	949
319505	1600
696925	2210
993089	2378
1060065	1825
873490	1165
538957	493
239941	125
72890	180
33410	493
58525	725
97421	725
150916	585
224845	317
307313	109
332461	25
274408	18
145802	18
36730	17
12290	8
72481	1
141809	20
151165	36
91780	89
20745	185
4610	260
51829	424
111140	562
116434	500
67357	400
13289	226
8900	52
58285	9
111400	58
120809	169
77285	193
24020	196
1069	117
6292	130
11188	193
4292	325
19193	485
100368	493
234133	433
349793	293
352837	130
231940	50
82948	13
27304	2
102290	4
218689	8
239290	50
121333	116
27572	169
6500160	234
9090632	136
10065241	80
9351485	85
7857874	289
6621800	848
6267658	1737
6579365	2434
6890821	3188
6743533	3280
6044996	2696
5054218	1945
3943073	949
2769901	337
1588648	89
823381	137
1066642	277
2612605	436
4994125	325
6967441	221
7394210	149
5948500	145
3625348	232
2013273	293
2254925	388
4238285	290
6723053	261
8261201	170
8170857	226
6887525	233
5363172	250
4328546	226
3829657	98
3396125	37
2693353	20
1904884	45
1541137	85
2020241	113
3231530	80
4548520	101
5247701	250
4929634	485
3730381	733
2163890	976
848528	850
149445	610
94138	305
380521	40
622946	10
619898	160
560282	370
860240	425
1769488	405
2976250	244
3586754	274
2850354	729
1053520	1525
72473	2704
2600225	4201
10490705	5441
23067650	6709
36696377	7465
46403240	7250
48014185	6525
41242466	4880
28948477	3106
16112357	1405
6881869	353
2758970	74
2547245	377
3809906	800
4653608	1010
4506112	954
3880637	490
3382740	193
3131813	74
2796608	185
2086925	370
1118234	610
308601	629
7888	680
188932	557
502465	461
611969	370
438973	181
178425	101
67657	50
186400	100
438148	200
681370	260
834098	202
905501	122
921706	26
826184	18
602170	64
296146	113
55172	64
16465	17
188944	34
427346	277
538330	530
436210	865
198050	922
28586	725
74545	512
328666	205
623993	146
772745	104
683176	100
402634	29
123712	45
19081	265
192708	905
591434	1594
1044436	2129
1328093	2180
1302596	1637
985114	901
515693	265
140788	2
1993	130
91429	457
270436	596
386770	554
371144	394
270301	160
186581	122
161005	205
170685	265
151717	225
97616	145
46213	34
54333	10
119620	85
185882	226
186421	290
119125	349
50404	305
49069	244
118297	196
192276	117
199944	85
134770	52
72085	40
82589	68
165337	41
239012	25
219125	5
108610	49
14969	149
57186	289
259400	493
507709	557
636682	629
561949	533
324250	521
96265	410
1521	305
57461	212
159506	85
199810	25
136274	8
37573	73
3161	169
92520	289
293101	317
8767530	521
12009617	410
13445233	221
12405562	58
9386260	221
5823844	901
3132442	2117
1892362	3106
1796537	3812
2233274	3700
2817205	2753
3459233	1625
3969305	538
3819050	72
2622509	85
883012	325
274649	509
2546752	613
7888464	397
13902274	256
17021000	125
14777632	122
8400977	116
2228473	130
872512	90
5638282	37
13289945	34
18341426	29
17128085	52
10569325	121
3548009	180
822097	296
3536237	293
8562425	281
11333642	145
9723949	65
5708500	90
3594365	250
6207581	425
12618274	409
18633060	356
20187773	145
16216178	104
9384706	289
3869860	593
2437136	865
4639121	900
7696025	541
8675353	269
6667828	148
3222826	457
1164005	850
2429954	1156
6615601	857
11010298	369
12378973	125
9363625	745
4091986	2522
1901156	5426
8418304	7913
25592773	10249
49525481	10706
71338581	9473
81539650	7380
75789770	4516
56858357	2385
33488170	809
15027912	226
6484264	169
6519490	397
9790045	450
11250889	400
9089405	197
4898533	40
1444385	109
246500	369
849257	592
1854530	698
2345837	674
2366864	445
2415284	362
2632130	337
2712601	388
2352841	522
1794274	449
1485181	340
1651330	173
1930714	36
1801033	20
1203848	52
808153	89
1357704	97
2882664	101
4446900	82
4889812	104
3864965	80
2189205	74
1185665	17
1511725	2
2687357	68
3548357	185
3368144	314
2431922	493
1782050	562
2040352	724
2903144	706
3425333	784
2985506	541
1856660	288
866993	52
617634	106
908613	520
1045601	1345
655090	2056
109696	2465
195970	2404
1237330	1690
2695328	1010
3482690	333
3068829	194
1937162	260
1154605	509
1512965	490
2780009	365
3937418	144
4074937	4
3237845	52
2210066	241
1825850	353
2197957	325
2760305	226
2845225	40
2353973	13
1772929	130
1641061	349
1984832	477
2358341	557
2272345	401
1763570	265
1233236	145
1145285	73
1443060	85
1722890	104
1583125	98
1034410	90
537805	50
476228	50
831400	49
1181657	145
1138025	208
705545	325
249397	442
157169	481
459449	569
837314	485
975465	442
841321	337
692154	197
743978	136
974093	34
1095565	10
957188	2
661725	29
567785	65
918161	169
1568057	221
29004968	445
38489236	233
42666597	53
40468801	41
34452032	425
28381405	1073
24161930	1989
20834042	2473
16314305	2826
10137860	2500
4396552	1853
1893050	1268
3508324	629
6960852	313
8768141	193
7329122	178
4730650	261
5260564	410
11423417	416
21182629	500
29140145	405
30263026	225
24411685	109
16455473	53
12949348	178
16978450	362
25736185	569
32697970	500
32669689	365
25413957	170
16072424	52
10507162	130
11338237	194
16258770	200
20407685	117
20427797	26
16968194	106
13852341	360
14353345	793
18834569	881
23941073	850
25518701	401
21610493	90
14083236	25
7046729	314
4123688	629
5855681	925
9599002	802
11568776	685
9835081	650
5543981	1154
2368346	1618
3400765	1993
8745140	1546
14938852	697
17340674	40
13692941	601
6729181	2754
3492513	6560
11136010	9922
31734410	12625
59849360	12701
84401938	10625
94461058	7373
85892000	3789
62860212	1465
35976125	260
15821000	8
7318676	101
8188457	193
11995813	109
12996260	52
9594250	145
4283786	272
795400	425
955124	442
3691265	290
6364880	221
7074101	257
5800489	410
4143424	692
3504784	765
4084642	680
4940345	557
4995458	260
4011088	145
2731450	116
2094929	82
2518045	74
3586833	53
4524385	25
4856405	41
4635781	90
4162778	74
3744225	82
3386105	34
2930868	17
2371405	5
1872986	9
1696916	4
1919385	17
2298530	128
2445049	370
2174597	657
1552861	1025
891293	1049
470482	922
363025	545
404072	146
377594	9
212200	260
36000	730
45781	1421
360497	1818
909353	1864
1461490	1700
1766762	1225
1767490	865
1487786	505
1175213	425
1002116	362
1053002	409
1239453	325
1437554	221
1517216	97
1453556	32
1286312	58
1118801	160
984573	242
891620	277
819794	234
761105	148
723985	148
724618	212
741465	400
732212	490
674469	545
566285	360
460265	200
385289	52
378946	9
384569	100
375665	226
313669	245
200594	244
103130	146
62761	116
86132	90
129418	178
145165	200
114602	250
48164	281
4292	292
24400	389
108349	370
212578	452
290482	477
307053	370
251485	325
173421	130
107650	65
104330	17
167957	81
288161	200
449973	389
627449	458
22799504	346
29856905	130
36910850	148
41696576	442
42261476	1138
38124578	1810
30414952	2344
21493589	2169
13705186	1813
8589709	1109
6295385	565
5847577	346
6035210	289
6073108	346
6079138	305
6653425	173
8412610	50
11605717	65
15744313	260
19851305	612
22998914	850
24449233	1013
24253450	954
22961250	657
21528050	409
20794085	173
21128650	68
22120841	52
22955396	45
22463689	64
20358928	65
16879945	146
13162165	221
10692068	340
10526477	365
12838349	325
16709893	221
20589696	109
22799713	74
22590826	49
20109233	65
16604221	52
13467473	32
11704612	32
11231389	50
11182405	50
10469026	73
8678930	130
6234050	514
4401685	1053
4195880	1989
5982880	2509
8792692	2621
11014285	1769
11183176	725
9053012	234
5916709	1301
4342554	3897
7212112	7673
16381693	11029
31412413	12706
49304441	12017
65107450	9602
73710356	6242
72266125	3085
61054760	1213
43931653	257
26717517	68
14276404	113
8537594	85
8061181	85
9424409	45
9454329	117
7130578	116
3774740	101
1606096	29
2029117	1
4641370	52
7641785	170
9080685	218
8302985	289
6027673	241
3735757	208
2593864	261
2728564	274
3410145	333
3753829	290
3360521	173
2526404	100
1885354	26
1916749	25
2633501	80
3626125	97
4256325	117
4160276	137
3346285	125
2174980	137
1239498	137
945988	116
1399729	185
2289325	208
3065890	325
3231985	490
2726090	512
1851176	657
1081349	529
747088	466
816073	289
963781	194
866689	178
495485	325
132626	520
113800	845
591674	1109
1386954	1285
2112080	1445
2402874	1352
2218514	1252
1666600	941
1103237	785
743530	481
692242	277
865850	145
1142161	116
1369637	146
1447001	205
1320482	221
1058842	202
789865	157
645002	113
708353	130
923525	200
1140485	320
1211165	386
1076265	457
822373	356
597805	325
505441	173
546377	85
609800	13
611428	4
487604	26
311176	90
150925	106
51597	162
30330	136
54224	205
89725	205
108797	289
107693	292
88497	269
52340	250
17893	185
14152	233
58481	272
143869	365
240809	466
306868	450
296777	445
238600	221
164689	113
160965	40
256061	145
439825	260
661648	481
840346	512
14013290	193
20127049	185
27970273	370
35943121	650
41551945	1130
42532801	1429
38283361	1732
30386173	1544
21852154	1241
15581381	785
12631697	442
12032969	325
11974225	232
11401220	265
10795597	265
11334002	193
13696829	104
17414162	41
20900420	85
22554601	298
21944641	541
19620640	808
16900897	932
14861978	810
14183321	677
15004861	370
17034385	160
19607341	25
21853250	25
22661140	101
21930757	178
20107345	265
18478489	281
18222517	340
19562308	314
21680100	349
23223893	274
23177186	218
21258029	113
18210340	29
14859122	17
11952965	85
9834760	180
8607040	260
8005653	196
7683140	73
7227720	8
6691577	202
6571850	872
7702081	1700
10368404	2602
13978705	2825
16780669	2498
17138938	1585
14819092	866
11481137	1021
9646645	2578
11197073	5057
16000498	8098
22508165	10001
28823821	10701
34386157	9605
39849037	7488
45724978	5044
51214216	2857
53786097	1586
50954626	841
42601760	617
31224737	457
20907844	261
14724305	157
13042580	65
13525965	53
13425901	89
11515429	58
8693570	37
6815120	17
6962282	20
8550490	81
9775226	125
9344978	185
7088321	185
4102682	157
1696169	104
434362	25
72648	8
80964	16
225373	37
670976	97
1601060	80
2852530	89
3959188	53
4588580	82
4680917	101
4656042	122
4853682	82
5249609	40
5540805	2
5315978	37
4531585	145
3498345	232
2589962	290
1961424	305
1598122	292
1291028	389
953605	442
619786	541
383125	512
261290	369
178858	265
81250	305
10420	610
80386	1186
368420	1629
816034	1853
1284770	1717
1613000	1306
1787033	1013
1815706	674
1822453	565
1801810	421
1748410	306
1584701	205
1335298	181
1064324	242
835793	369
680516	452
617605	452
643880	346
748449	288
921373	265
1092865	325
1187225	392
1165265	377
1028466	333
853540	185
728370	170
661505	125
625741	130
552040	109
437449	36
287312	5
164968	32
88400	100
44057	245
28580	305
38565	409
85306	361
150925	401
199945	349
195065	305
118813	181
32328	82
12050	80
103585	180
271940	394
430880	612
492682	677
416225	610
271925	325
134705	181
98093	68
167101	145
305289	260
470210	457
628180	468
13450277	50
16577972	146
21995137	404
29160314	650
36100249	1073
40489024	1417
40797445	1746
36986225	1685
30496680	1450
23533925	914
17843957	452
14174165	122
12429850	26
12100738	128
12747965	261
13880186	281
15017050	250
15830722	221
16121992	325
15907600	650
15617060	901
15590425	1145
16098877	1058
17158820	773
18643157	425
20362834	160
22019045	25
23209589	5
23572937	29
22582930	74
20578841	52
17874125	58
15255781	50
13451269	73
12909410	130
13934650	221
16444513	325
19981125	370
23400065	386
25486781	226
24965840	90
21570484	5
16168036	65
10473229	260
5901274	288
3142100	245
1961137	37
1957689	61
3073721	612
5640010	1522
9542461	2621
13891754	3042
17002253	2880
17784625	2000
16923589	1405
16657121	1802
19189402	3701
24839141	6229
31082164	9178
34492162	10408
32953040	10330
27982945	8545
24031204	6122
25543773	3890
33831720	2372
45653050	1732
55027930	1369
57147149	1097
50882825	653
39274945	289
27355897	100
19073645	98
15322289	200
14543240	292
14356260	181
13184901	97
10940221	8
8298025	40
5987041	225
4171765	338
2812276	410
1793032	369
1202797	193
1120498	68
1388665	1
1674634	20
1784165	89
1727140	89
1777576	106
2162450	85
2860873	121
3632441	173
4235624	229
4448788	197
4340597	145
4003624	37
3513050	13
3025210	90
2660357	173
2594113	290
2898946	250
3372265	185
3634762	101
3407941	100
2635349	293
1597949	477
683010	629
160628	610
14258	605
44260	584
63225	674
31109	810
57185	1044
254405	1076
628501	949
1095588	866
1518586	810
1850453	884
2013845	922
2048425	1025
1914185	829
1662928	653
1334170	365
1049992	181
903968	74
904193	82
974341	104
1038890	160
1063460	202
1055645	244
1070632	292
1094032	305
1078425	362
995825	324
828565	328
635986	260
492004	212
400426	97
362404	41
339125	5
351293	16
384785	52
445250	32
479744	20
426757	18
298945	109
141661	404
35257	692
6280	922
27685	932
39429	689
23396	325
5413	40
40009	25
140237	250
263313	500
345940	730
367841	685
362081	601
413092	404
504650	324
605749	272
628042	298
531837	260
393626	234
323765	130
17439109	65
16036880	170
16058320	449
19376370	801
26252852	1250
34845289	1465
41881925	1594
44380132	1332
41323077	1090
34380749	593
26810221	250
21426325	85
19308008	34
19482458	125
20084905	208
19396610	269
16892705	290
13237549	242
9677284	242
7485224	277
7779556	400
11060100	596
17053562	722
24349993	773
30813840	746
34251277	533
33477250	325
28940365	82
22412977	2
15849700	89
11060509	221
8604905	433
8575076	449
10888992	445
15279860	305
21122874	202
26942705	226
30887140	218
31186130	265
27714565	125
21473218	45
14519124	4
8734346	90
5214733	250
3933200	306
4368821	225
5725813	58
7438418	36
8947273	405
9924773	1025
10158930	1753
9926866	2196
9599629	2306
9724705	2372
10934897	3140
13826333	4477
18711433	6841
25260209	8629
31895242	9809
36177041	8885
35743021	6953
30151400	4469
22143368	2665
16808980	1985
19075985	2020
30203681	2452
46402596	2129
60524692	1538
65725658	580
59680073	85
45609733	80
30281437	325
19470713	580
15265333	509
15462961	265
15922829	37
14021064	26
9642202	128
4872625	202
1731140	128
888845	13
1481597	64
2254600	281
2647049	612
2826221	725
3153538	625
3629044	260
3739765	90
3181768	288
2099408	725
1171586	1217
1073869	1285
1960769	1061
3402937	577
4837288	353
5961344	464
6702930	733
7190010	1033
7225348	925
6606554	640
5273629	193
3483202	81
1771562	233
676756	548
341002	866
506665	970
752194	965
792245	809
651125	740
495889	533
483841	416
627917	281
779945	392
804420	740
668165	1098
480145	1537
403609	1469
586493	1280
1033289	689
1657681	388
2250361	261
2575970	369
2464681	593
1966010	578
1308905	520
780866	377
552305	317
648104	436
912530	500
1151492	538
1288592	410
1300624	208
1213930	148
1061860	205
823250	421
550378	468
347410	445
309140	250
464785	130
699649	68
880965	145
870740	208
712945	170
496525	73
310885	1
202645	98
131002	433
66625	808
32005	1037
69893	1076
189325	821
331241	425
405362	229
374180	164
306065	370
302585	585
406152	820
563485	865
639493	810
581330	584
399860	397
265189	185
284969	104
447525	61
629425	137
691529	170
23616049	25
17692733	173
11999572	610
11253285	1066
18103697	1709
31173920	1832
45336226	1808
54507258	1154
54986681	650
47535725	125
36487405	41
26787506	226
21191953	409
19291325	457
18720549	234
17017733	45
13610165	73
9822280	436
7707330	1124
8577040	1625
12349640	1921
17609300	1700
22601461	1205
25835945	725
26863722	361
25881181	250
23639146	130
21049697	109
18797085	73
17045524	89
16008052	221
15386516	333
15092162	562
15156676	656
15657941	676
16813037	730
18591248	565
20877050	450
22900256	234
23994225	170
23173789	289
20017714	541
14941793	925
9489896	980
5435648	925
4194682	593
5730345	377
8746945	477
11311625	808
12184138	1360
11421748	1864
10254500	2725
9774257	4160
10448577	6218
12120277	8845
14726485	10765
18656362	11633
24484385	9992
31543360	7402
37468800	4040
38961085	2041
33937364	1405
23992225	2074
14332061	3050
11453441	3137
19066084	2610
35403485	1305
53864469	386
66314849	25
67706938	218
58483637	548
43818109	565
29764045	388
20295301	85
15498589	9
12806176	194
9892450	445
6023925	557
2443282	452
701549	233
1400858	101
3637604	40
5748877	90
6581060	117
5890597	101
4318525	130
2674468	173
1377545	314
546597	421
140706	548
287233	754
1184740	914
2864753	1322
4945786	1570
6811249	1885
7896656	1810
7856308	1637
6931620	1544
5429268	1405
3881330	1508
2619490	1322
1736785	1181
1180021	928
866466	949
685129	1378
564500	1781
463637	2248
374665	1921
302056	1476
238853	569
194749	169
184741	281
210845	904
283240	1685
395937	1937
552721	1853
754000	1157
1003225	538
1260329	97
1529541	68
1738413	244
1850441	514
1804052	617
1625585	650
1403770	557
1220194	461
1120356	353
1109741	292
1128389	218
1098137	208
1009972	185
865874	180
698312	173
560513	145
457042	180
401882	145
411970	181
474498	145
582409	162
672445	97
721421	101
670825	97
551321	117
385556	65
214916	16
92885	64
28069	233
13921	586
24272	970
36560	1225
36881	1186
29224	848
28762	533
58789	290
138569	457
269965	725
425746	1069
564026	1165
617797	1018
583504	637
446221	292
287865	101
162458	130
109129	212
143177	340
224649	265
30363821	101
5669089	389
1219409	1297
18956477	2260
47743444	3229
70866650	3133
76842580	2522
65152772	1258
44445353	361
24713938	50
12127028	325
7031108	900
7105645	981
10610482	754
16940160	320
24600101	145
30129424	580
29608021	1250
21846746	1940
10378897	2066
2478713	1640
4121552	1037
16165060	424
33200037	145
47041829	82
51151090	82
44007412	101
29724021	45
15000736	40
5702426	90
5183705	74
12540890	74
23573525	26
32654884	113
35399610	317
30869204	545
22053844	625
14447605	533
12238322	257
15905482	157
21781565	250
24765901	605
21802898	961
14089186	985
5598058	1025
579866	901
794576	1053
5148365	1233
11168425	1345
16720450	1629
20598845	2029
22214189	3665
21031348	6425
17212816	10138
12737205	13460
10869850	14602
14546853	13325
23547701	9250
33981768	5252
39801092	1877
36904153	757
25990145	1345
12823705	2529
4641481	3281
6035117	2890
16664677	1877
32000537	706
46388429	145
55518093	81
58197892	325
54864485	461
47172058	425
36992884	193
26524420	34
17776421	13
11708210	82
8223346	200
5897645	261
3579316	305
1242128	250
104186	185
1510474	74
5386725	17
9888293	34
12301033	82
11232965	153
7289162	97
2786401	80
228616	100
579505	325
3045618	793
5853285	1193
7536698	1690
7450372	1730
6043537	1853
4077800	1921
2398337	2210
1643720	2600
2128757	2581
3584349	2493
5228794	1780
6024617	1369
5296493	1258
3344945	1588
1223225	2245
77282	2386
310081	2250
1397322	1354
2398240	613
2697381	104
2350426	185
1897325	625
1601680	1042
1322693	1220
835210	1010
281557	785
260473	538
1283956	461
3150754	365
4838002	346
5193578	185
3891562	148
1711300	225
197210	482
412677	794
2142485	1000
4084730	1060
4862090	832
3978344	565
2118740	289
522404	73
57973	16
691857	82
1711025	170
2354273	369
2269921	410
1677290	493
918730	370
334413	281
66420	106
118154	26
446465	9
913225	49
1310930	65
1406626	82
1150669	61
676004	100
294890	250
213322	442
416970	653
691520	761
825389	794
762805	784
562585	720
344482	914
185513	1049
64333	1332
10084	1348
78880	1160
295700	785
573277	320
740357	53
660370	37
339469	200
54865	505
27850	562
70840720	205
40948245	425
58398665	1341
104699060	2722
143735377	4113
147362938	4361
111713330	4000
57719129	2637
14342308	1480
218530	977
15023665	1105
44666570	1706
72817936	2000
89131034	1825
91045210	1625
79670194	1360
57878962	1681
31973877	2120
11248849	2306
5209810	1972
16902706	1114
38791394	373
56337181	34
57052322	260
40792826	778
19374088	1108
7979362	1017
13307725	661
28983572	250
40758912	122
39019012	221
25292320	360
11098368	586
7587290	577
17156224	637
32135221	793
40921108	877
37657485	929
24839282	725
11135412	488
3958244	269
5273476	234
11108945	458
15568786	661
14586613	901
8735389	922
2164616	769
435914	481
7109730	178
21087144	305
36255761	1189
44375168	3393
40120525	6905
25632680	10673
10412048	13901
5163520	14884
14155322	13220
31576196	9160
45195130	4765
45070393	1205
31273745	26
13019045	730
1872100	2106
2719058	3145
11095074	3025
18400964	1930
20059472	820
19657025	90
24660052	36
39615305	314
60070018	461
75838473	452
77274833	185
63330052	41
41113616	10
20087273	52
7279970	74
2924500	26
3499433	10
5253005	130
6483258	333
6946605	404
6437000	424
4662116	185
1991821	68
159193	116
849472	356
3996680	738
7084361	962
7291021	1013
4077050	1040
505513	1066
917410	1517
7002329	2026
15807074	2593
21893173	2756
20997000	2605
13892085	2080
5279090	1370
379250	925
986354	605
4829697	754
8045776	1154
8427933	1810
6412930	2309
4207760	2402
3229018	2194
3558097	1313
4329082	613
5183393	73
6276680	50
7713225	481
8685200	916
7971476	1229
5495780	1042
2793797	676
2012866	274
4235965	82
8135332	85
10828314	218
10133765	218
6503426	180
2322725	50
322120	130
1401625	442
4085024	865
5922613	1201
5592712	1322
3508389	1021
1288325	626
198581	178
404762	17
1102634	109
1550800	346
1546813	656
1317937	676
1173397	701
1012505	401
742477	205
342049	29
58589	5
116522	34
497930	73
997520	65
1435993	65
1791829	65
2105156	90
2355770	229
2454381	325
2345417	461
2361789	580
2817581	629
3754625	733
4706929	794
4828066	1076
3898273	1237
2343161	1448
1241480	1352
1386338	1129
2702898	754
4237225	281
4920037	65
4406909	61
3214521	229
2436437	509
2606193	521
122099812	212
95154914	386
112205645	881
149641825	1805
172900258	3034
159459274	3877
110814337	4321
50743936	3737
9667780	2929
6266824	2020
38448954	1445
86199941	1602
123639058	2069
132622169	2628
111076148	3034
71120530	2825
31306664	2637
7283029	2210
4023234	1730
15756112	1250
30219274	689
36741913	281
31671712	20
19230929	121
8420221	544
6318212	985
13350434	1114
23546170	1025
29039778	557
25101268	193
14576500	9
5056385	185
3971197	580
13057226	953
27044020	1160
37183621	1040
36767124	674
26749925	370
13909765	113
7233685	106
10756633	298
21261060	641
30023440	1040
29857364	1201
19658810	1217
6427066	800
39465	436
6473305	185
23082338	317
40182376	1172
47332360	2570
40448425	4689
24717325	6964
10604116	9104
7121153	10628
15153125	10865
27760660	10045
35232013	7306
32351125	4616
21207584	1746
9028296	340
2345729	221
2357746	1093
5143945	2205
5987897	2825
4147085	2477
3967882	1600
11615465	610
29181673	89
52730761	89
72564561	353
80217738	634
72187594	565
52594756	337
30181933	72
12321416	25
3045722	146
960466	392
2241457	425
3439906	362
3323456	200
2525473	104
2145897	221
2647597	353
3484354	485
3825956	488
3252505	337
1943642	305
631546	365
17561	661
339616	1256
1428661	1649
2771969	2276
3972421	2353
4678600	2410
5031540	2005
4945169	1682
4455712	1346
3570370	1088
2459169	1205
1476842	1345
1198980	1700
1808360	1901
2989418	2025
3878548	1877
3666312	1460
2241445	1060
581425	584
71525	290
1539170	65
4403165	104
7074413	325
7738128	569
5953172	833
2929348	745
922349	584
1428368	296
4274320	65
7707365	37
9338213	109
8350856	170
5427602	170
2470450	34
1116905	13
1825865	234
3661277	661
5038834	1145
5031794	1424
3698605	1261
1880228	922
500461	425
73202	205
429301	257
1090664	458
1656433	697
1884202	676
1803321	533
1398004	244
862877	61
345029	9
78514	61
250402	58
817416	65
1559597	18
2126794	13
2275949	81
1995428	170
1556738	265
1304456	305
1390769	292
1824149	349
2333572	436
2638681	733
2574260	986
2035313	1348
1326368	1476
682601	1621
387973	1469
516644	1205
981529	890
1534201	565
1899805	442
1935425	320
1589128	338
1160218	449
898768	400
139824945	360
111854713	698
122942538	1073
153062845	1745
170610977	2617
154302997	3330
105207188	4097
46411625	4121
7564864	3869
6501809	3172
39775517	2138
86328244	1700
120339970	1489
125294249	1864
101247569	2692
61792754	3130
24945730	3481
4522024	3033
3805537	2228
16427245	1181
30797402	360
37007405	29
31704865	128
18696682	457
6656949	820
2809369	929
8154541	746
17316349	457
22504072	170
19035805	117
9529858	229
1320237	392
1170517	578
9803305	509
21294601	433
27750042	305
24406210	197
14158853	181
3895597	205
183125	349
4172050	578
11689445	820
16606685	1025
15830288	925
10473745	832
4924385	538
3039497	468
5826146	706
11212621	1241
15966425	2089
17524845	2890
15154901	3874
10031605	4985
4491005	6425
1274930	7930
2025545	8818
6475625	9049
12264352	7633
16114961	5617
15700040	2920
11279242	1170
5521828	593
1388628	970
63304	1872
317305	2425
292850	2213
28333	1586
2320308	666
10789866	148
26687365	13
45976165	157
61382834	313
65779061	314
57056945	145
39677348	49
20832353	37
7839074	130
2778152	292
3310885	340
5092645	317
5208433	261
3703801	153
2463124	101
3164368	26
5576301	4
7944053	58
8462129	185
6574489	509
3505184	793
1039733	1154
315122	1396
1302340	1544
3101778	1865
4766714	1913
5866281	2045
6734425	2050
7431625	1989
7755106	1865
7222585	1625
5662681	1570
3551249	1413
2204109	1418
2447965	1289
4182385	1241
6080425	1156
6490593	962
4711081	954
1841305	725
65416	676
1076900	505
4681610	424
8867609	370
10875658	244
9424477	234
5484433	193
1833625	193
806888	229
3002184	149
6829906	157
9665289	64
9841729	26
7478585	1
4004386	53
1222757	136
203400	325
872930	445
2348260	610
3735461	625
4381885	585
4088893	585
2931140	425
1486900	425
324649	410
37892	401
800306	452
2180645	377
3430610	325
3794050	250
3136132	145
1883333	85
676597	16
63144	5
173749	26
856213	52
1828681	81
2817889	162
3432712	200
3426548	292
2708113	296
1507130	281
574925	256
557521	225
1636034	362
3281137	592
4349146	1097
4190465	1466
2810728	1908
1109714	1930
127913	1700
484625	1277
1872425	757
3414560	541
4178960	389
3730410	457
2462036	653
1070600	584
85681885	288
129819218	601
181285300	962
225796181	1517
249986221	2180
244371661	2725
213091173	3412
173579408	3506
147888217	3501
149359418	3170
172220537	2762
195217474	2704
195129290	2833
162114826	3104
106951490	3665
51691186	3709
15435556	3413
3187106	2594
6854081	1602
14436370	797
19728017	170
23895173	8
30539277	81
39130306	202
45161197	233
44108261	229
37466500	197
31041817	293
31497149	353
39729922	433
50626624	362
57264266	269
56650490	337
51344941	529
45378148	1013
41723306	1530
38596905	1625
33531236	1514
25679714	909
17388333	405
12229277	100
11404682	121
12578362	221
12430485	317
9330568	388
4893857	577
2537125	1409
4225808	2705
8869250	4045
13314481	5085
14572721	4825
12236068	3866
8035074	2746
4524250	2525
3316816	3825
4324393	5882
6422417	8136
8407818	8788
9547754	8045
9843725	5917
9116321	3833
7703921	2477
5566592	1898
2996660	1924
842528	1937
554324	1466
3958345	936
11931445	274
23622037	13
35655813	40
43344100	181
43725373	196
36732770	130
25596964	58
15259501	58
8521970	104
5732786	181
4872290	101
3784906	40
1938560	104
375752	290
145300	529
1067725	724
1901984	629
1623101	493
526241	362
99626	306
1573277	436
4675892	530
7767521	601
9014050	800
7845626	1010
5242365	1684
2654725	2173
1116050	2925
609745	3109
633893	2885
937513	2504
1563553	1696
2488336	1184
3262810	689
3453365	634
2795620	745
2015370	1097
2006633	1385
3273469	1525
5234450	1625
6718357	1250
6809098	965
5593730	586
3697577	292
2173924	185
1332612	85
1139333	85
1442002	106
2261233	164
3535141	257
5008141	274
6151748	296
6261044	144
5623853	40
4687380	1
4065001	81
3803930	232
3610625	468
3065165	577
2026573	629
1055248	610
594468	488
700706	445
1024141	338
1217977	377
1338682	400
1701746	401
2593000	493
3675685	436
4279061	397
3814541	306
2510105	170
1114378	85
265940	20
92065	10
169634	36
131300	73
88961	90
557905	170
1878309	197
3772610	245
5474378	269
6021522	245
5374805	265
3981514	293
2611780	445
1814020	565
1392640	932
1122010	1160
800325	1588
538682	1649
402660	1714
452020	1440
532009	1042
606281	821
845617	584
1391426	578
2283080	680
3240905	625
50847201	601
99758068	580
167673521	625
232128821	1130
273049690	1945
280760377	2810
262640548	3770
238538228	4113
228231505	4361
239236274	4346
261430273	4122
274678400	4274
260198233	4001
212750665	3602
144988930	2980
78464601	2041
33014441	1521
16932161	1009
25053593	730
44179785	580
62184898	377
72890681	290
76849669	261
76926589	346
76094330	576
74274785	689
71628448	577
68011121	485
65096968	241
64179856	125
65310436	65
65915273	8
63286925	58
55529578	202
43104529	625
29133925	1154
16845749	1537
8439250	1818
4033850	1537
2167937	1109
1236560	641
544708	314
662516	149
2765050	106
7201449	229
12771400	801
16964228	2250
17549005	4157
13749866	6052
7676197	7209
2437121	6165
516410	4082
1835524	1625
4065381	514
4840736	1597
4008901	4817
4050020	8650
8277025	11069
17349561	11965
28034074	9860
34057049	6970
31371364	4292
20631221	2213
8052512	1424
1664692	1165
5948137	845
19080865	481
33730450	122
42486082	10
41617300	178
32945650	521
22335757	689
14939557	541
12368725	325
13164453	113
13825561	58
12360410	200
8760505	416
4599578	468
1505525	493
181233	337
263738	194
858845	173
1240069	164
1129301	169
722657	202
613141	218
1337057	333
3095450	520
5387533	808
7158973	1189
7361833	1525
5707444	1922
2973753	1864
690721	1970
19210	1861
1024965	1777
2711213	1768
3758089	1585
3539216	1629
2408482	1465
1511821	1369
1446440	1220
2281717	1160
3278900	1156
3709837	1114
3319249	1210
2375410	1060
1451138	997
920996	720
812090	500
1237457	410
2173405	232
3703297	212
5637925	149
7641554	104
8921809	101
9248272	90
8561960	164
7012304	125
5219514	122
3523754	32
2072473	2
975377	82
448370	338
580040	592
1247389	873
2170121	1009
2923688	904
3220970	773
3088322	477
2661682	340
2186885	202
1670425	153
1255745	193
897280	194
683017	314
591650	389
633645	404
708557	338
704245	169
637309	41
502985	26
379154	173
336964	320
407138	521
655001	485
1177241	405
2023697	242
2938361	185
3709477	288
3988165	468
3589074	641
2836594	650
1858361	680
1070645	650
578834	850
384970	1028
352909	1361
490816	1538
789786	1465
1244069	1412
1781897	1220
2133170	1021
2187770	932
1993225	641
63167240	529
108676097	221
165017680	170
215921281	754
249210765	1865
259370362	3253
251789921	4820
239301764	5492
234270202	5749
241245765	5485
252975290	4426
256496741	3497
238716329	2482
195470309	1802
136079297	1538
76617866	1360
33095237	1546
13829213	1666
16959106	1640
33092650	1450
51420944	905
64435940	541
69952970	226
69450644	73
66879290	85
64529645	116
64197522	85
65491801	136
68370133	234
72596484	477
77787236	666
81887229	676
82382690	656
76460704	436
63177749	298
45616400	202
28597985	245
16518514	373
10426450	505
7748149	821
5250050	1172
2049554	1205
784772	1028
5066260	392
15500050	2
27828945	452
35075297	2402
32842377	5309
22219850	8100
9930856	9522
2726100	8100
2907529	5002
7518800	1685
11617609	20
13228297	1418
14512205	5449
18956372	10169
27343978	13322
35685593	14068
38477225	11745
32427460	8104
20507976	4729
8714420	2036
2292485	725
2300602	221
5862085	34
9788930	17
13044301	65
17037928	178
22484402	221
27518605	197
28781098	149
24345997	26
15639040	5
7718965	25
4599626	65
6955306	45
11422850	20
13551400	68
11307140	277
6286757	481
2017717	661
956233	882
2880016	848
5564725	810
6890273	808
6341593	577
4671781	313
3030001	65
1929098	178
1301458	841
1047017	1865
1126280	3114
1436069	3533
1609306	3177
1234705	2165
469456	1098
114848	730
1039466	1028
3239410	1885
5570437	2378
6822916	2340
6208072	1629
4814930	797
3929588	397
4316968	565
5192189	1229
5105321	1700
3448052	2089
1208762	1732
241250	1125
1911013	617
5754626	169
10014416	18
12757033	9
13455017	97
12450573	149
10948640	197
9305377	250
7129341	193
4444250	144
1893445	146
467629	130
868345	130
2713610	180
4730625	148
5529925	208
4776725	320
3049841	484
1357753	773
399701	890
168085	953
387621	820
845197	500
1576241	340
2516762	157
3308625	185
3377141	205
2597764	221
1335589	178
281385	85
40437	90
640616	208
1601937	356
2366568	500
2584301	580
2319193	400
1843157	221
1374913	49
988637	13
903610	121
1236325	369
1949945	493
2894018	442
3464452	377
3420530	232
2695108	397
1730605	793
833738	1429
327265	2036
142913	2205
177722	2225
440941	1810
970154	1220
1755585	720
2583653	305
52387714	493
75562565	164
114954601	36
163216105	484
211764218	1570
252240272	3258
280640905	5202
297964253	6250
306629354	6625
306940850	6109
295333865	4709
268483973	3389
225060048	2257
168850952	1709
110300552	1764
59907685	1801
25577474	1930
9565145	1665
9026154	1234
18390377	884
32187268	457
46040105	208
57067012	104
63201440	58
64945297	164
63898196	229
64290536	356
68918218	481
78668218	409
90847586	338
100588816	212
102756853	45
95858890	18
81502992	100
63108266	445
45388945	841
30724202	1234
19636546	1618
11470154	1433
5442034	1076
1732793	676
946628	325
3501341	306
8786809	340
15155172	505
20515412	661
23014001	1378
22067725	2788
17874601	4645
11995776	6641
6284602	6922
2589101	5657
2364250	3145
6171156	866
13572000	980
22810185	4450
31083922	10177
35705125	15445
34834005	18545
29185325	17225
20774912	12805
13160165	7298
8446804	2612
6751089	362
6656225	101
6427076	712
5863076	1117
6158930	928
9113921	629
14577677	442
19989000	441
21952906	578
18519530	596
10854337	392
3394514	265
476500	450
3681652	850
10548506	986
16292162	1042
17180692	1000
12858925	884
6433425	1010
1867556	1370
1259353	1385
3575365	1000
6110017	585
6657192	148
5043650	233
3057002	650
2386148	1285
3380185	1657
4800868	1697
5188345	1832
3958036	1733
2122004	1865
1165348	1818
1906866	1538
3932189	1073
5897810	544
6733610	596
6209338	937
5245578	1546
4428605	1754
4260089	1369
4319793	706
3987450	180
3002996	365
1657844	1108
639845	2194
563137	2720
1518740	2465
3324212	1629
5319712	634
7052445	90
8184553	80
8747226	452
8628020	689
8079586	725
7150570	580
5716589	325
4036520	245
2414605	386
1139665	450
572004	392
892160	225
1897345	73
3003845	145
3680762	482
3588649	941
2821520	1385
1857425	1274
1123993	1000
901121	592
1041554	169
1352770	73
1597621	137
1669826	337
1499329	373
1194170	314
787573	265
352306	208
56457	205
71677	305
482536	313
1196365	289
1934221	242
2424690	122
2599825	68
2553680	32
2372873	17
2280953	37
2261485	116
2184554	245
2077561	293
1776266	365
1437317	281
1100285	290
890737	386
743170	818
733961	1450
793850	1882
925121	2405
1124581	2248
1277737	1850
1402180	1285
1542133	592
37908685	545
75076640	325
121079825	29
165737170	221
204734573	1189
237361364	3060
264560144	5458
287053177	7060
303314020	7540
309356816	6656
299490514	4505
271503860	2825
226457009	1709
170113477	1753
113258521	2525
65754305	2960
34160741	3185
19150925	2381
16628490	1373
20608425	586
26702545	121
33138164	53
40167385	85
47784881	146
56138240	244
64029650	296
71700493	404
78993972	541
86271058	482
92955361	292
97418756	173
97235945	148
91561345	356
80528337	629
65476001	949
49272170	1129
34148596	1156
21543028	1325
12111010	1153
5711869	1069
2280826	720
1846861	328
4626689	116
10389769	104
17940042	457
24967156	970
28579450	1730
27090733	2525
20542025	3425
11658586	4210
4185090	4165
975986	3560
2749906	2404
7901073	1296
14011400	1460
19094312	3730
22145765	7762
23235146	12200
22406729	15885
20346346	16292
17642984	13621
15830945	9325
15761689	4365
16902720	1090
17430377	8
15216065	522
10152964	1570
4593013	1985
2549738	1730
6129721	884
13629905	164
20269033	58
21415418	410
15811380	850
7442245	937
2100074	740
3637673	362
11084090	122
19364605	261
23331001	842
20997352	1465
14729593	1933
8618768	2088
5498225	1693
5000449	1105
5004737	505
3705640	89
1358317	229
11657	680
1164020	1377
4590589	1709
8176189	1621
9787828	1348
8570025	746
5668570	529
2874989	425
1505333	514
1682116	530
2556989	296
3366810	149
3785858	98
4064201	353
4197770	640
4329265	769
4138525	628
3586050	170
2711945	1
1676090	289
721940	1130
97721	1962
124996	2417
1206760	2384
3426637	1620
6498433	788
9503568	325
11548800	320
11894557	650
10708490	1028
8586010	1369
6094890	1205
3932305	873
2384693	629
1413586	333
1011728	116
1233945	40
1949746	65
2747944	233
3235618	466
3096882	757
2374349	970
1482325	800
843140	585
751077	373
1092001	117
1625428	74
2002276	97
2013689	265
1586372	389
970004	425
410996	500
81101	405
59153	314
248418	269
492050	145
709253	89
920725	50
1243202	32
1769248	20
2394973	49
2769885	53
2749370	58
2307770	80
1661809	90
1317537	117
1385485	148
1852426	113
2329380	109
2549506	122
2203645	305
1573570	676
896013	1168
519373	1796
583213	2120
952157	2041
1410813	1745
1713941	997
24849101	274
68329746	122
133768274	17
199476770	449
249751538	1557
279915841	3341
294899377	5186
303716185	5801
310196338	5693
310369802	4397
296325965	2448
263726929	1096
214958900	685
158172040	1156
105420872	2080
64790069	2600
39048616	2650
25892045	2221
20768488	1552
19754477	1322
21226025	1172
25190525	1154
32210249	1033
41817362	725
53298985	653
64662305	729
75016388	1129
83272538	1300
89216618	1017
93033189	545
94822569	65
94035874	106
90486260	605
83336864	1261
71625258	1649
56407689	1314
39378397	733
23198149	205
10637072	13
3126521	125
708424	193
1976980	145
5117705	53
8752169	305
12370720	977
15879569	2045
18753697	2890
20102788	2890
18783090	2404
15016625	1684
10456640	890
7611074	605
8403266	666
12645140	1025
18116305	2152
21849893	4570
21815498	7925
18590248	11554
14321213	14890
12088817	15380
13200610	13313
17471834	9620
22719476	5200
26264465	1901
26044850	445
21309929	416
13514560	1088
5503301	1448
1062893	1378
2602330	976
9820289	436
19393345	104
26744530	10
28337866	26
24488010	45
18754162	64
15723413	181
17922946	365
23781305	745
29198585	1225
30007049	1508
25010404	1681
16258273	1573
7653890	1025
2084436	565
361377	292
1077290	225
2428325	317
3156004	397
3219233	457
2843658	288
2248765	205
1502020	232
877210	274
753768	373
1391450	328
2636360	164
3995041	40
5005057	0
5623681	34
6132164	61
6859805	37
7121353	9
6503309	29
4756313	130
2517041	196
957620	205
776785	290
1582760	488
2249685	1024
1901930	1825
1159549	2836
1602112	3005
4626605	2593
9894672	1952
15335658	1229
17958637	1010
16458242	1377
11647765	2120
5912194	2425
1921940	1972
667357	1224
1242425	425
2065969	18
2198914	180
1813664	626
1573610	1010
1975826	986
2666197	676
2940264	392
2440693	212
1481885	333
830497	445
924800	373
1650109	265
2362378	61
2464417	25
1795784	200
865673	522
200677	841
16949	884
179812	685
380725	461
450689	202
508349	72
742097	41
1241825	34
1815364	5
2192922	8
2044429	50
1542965	146
979333	290
690664	265
911093	180
1399040	90
1860968	26
1974260	116
1791841	245
1395125	449
1169881	629
1159777	757
1303202	1130
1437970	1378
1392488	1570
1321625	1629
1424660	1277
3168945	625
24702889	305
73418500	13
134236297	580
190073160	2161
231206917	4705
259863050	6770
286534970	7120
317533577	6032
347760900	3812
361852633	1525
346205512	500
296639290	612
222826565	1417
144206096	2125
78362450	2042
34598561	1658
12252605	1168
5489977	833
8071661	890
16168309	850
27706141	773
41416209	500
55545860	181
70215461	225
85110596	365
100713226	650
114514394	820
122856336	625
122068105	338
111515941	100
93307825	50
72639925	194
53871572	485
38946464	769
28654465	802
22123170	674
18102650	493
15363269	245
12393277	41
8741284	2
5312690	40
4061410	197
6427348	488
11852585	776
17586376	1268
20531380	1801
19766354	1993
16543652	1952
13310245	1844
11126050	1476
9246541	1105
6846274	1130
5116660	1421
7027645	2425
14649058	4553
25819706	7069
34564241	10237
34921972	13177
26983169	14425
16835689	13337
13623688	10834
21224509	6920
34968677	3177
44359506	1040
41120473	485
26470656	1069
9866194	1681
2864360	1789
9895397	1413
25649572	617
39416585	101
43769300	8
38873332	125
32029010	202
30356441	82
35405320	29
42832309	290
45708650	1037
40755249	1928
29401970	2536
16683236	2597
7027058	2120
2033765	1301
713689	617
1055556	421
1607314	530
1937610	617
1825009	544
1369530	328
594365	97
79682	41
452897	205
1991345	421
4223272	610
6190610	585
7062785	328
6738570	178
5598632	100
4270408	117
3196225	145
2632610	164
2421809	202
2576650	221
2702912	218
2473672	221
1759140	386
796909	685
128153	1172
67293	1885
437377	2645
850109	3412
1139357	3380
1871777	3033
3803869	2533
7151189	2105
10644530	1825
12570485	1933
11626345	2165
8016026	1940
3722248	1346
883445	680
200680	185
878530	73
1491368	242
1311389	442
695357	529
612349	370
1367029	148
2307780	146
2501316	337
1715792	629
696473	730
408393	500
1201441	244
2398513	50
3006385	100
2588002	337
1587213	629
817045	865
613089	802
703744	533
569930	305
200770	113
3250	52
371092	68
1146610	80
1741681	85
1713709	89
1196298	80
880265	65
1193681	68
1838770	29
2242976	1
1944090	8
1330169	37
1184185	72
1919530	50
2959450	58
3420610	149
2778737	365
1582965	872
880466	1385
1299152	1764
2454244	2041
3325393	1714
22488985	386
39841785	65
64935988	122
90341689	980
106468349	2610
109414397	4801
105530809	6250
108972260	6109
131090290	4849
171065060	2853
214077233	925
240760661	98
237819380	306
206274914	1037
159404708	1585
114193764	1321
80560180	772
59918416	233
47448594	25
38076968	325
29622973	641
22835377	820
18296093	673
16353706	306
18484210	64
26943157	200
44217680	580
69207757	1018
95895620	1044
115460165	800
121558522	530
113212448	298
96593517	245
79114916	289
64670993	349
53196097	325
42081460	164
29303485	170
16540641	202
6679594	290
1914805	356
1910474	260
4590577	146
8101402	200
11786020	400
15636616	898
19031845	1480
20762365	1952
19419154	2465
15392744	2754
10349321	2665
6241716	2164
4044925	1604
3760237	1105
5497960	1585
9918820	3890
17020468	7373
24945365	11645
29394530	15569
27107125	16580
18102330	15080
8363529	11657
5405465	7432
13146313	3609
27804538	1522
39826900	941
40763168	1090
29915089	1145
16032061	873
10852409	500
20771018	122
41921221	2
63337684	82
73841081	169
70658978	193
58702673	250
46872964	365
40402792	592
37946548	928
34838137	1225
27269425	1261
16272125	1105
6078250	1082
818765	884
953552	676
3491560	577
4847464	445
3656900	293
1313845	298
228761	333
1555069	305
4316330	169
6524129	41
6789514	10
5272777	170
3207937	485
1796225	674
1635890	725
2484770	586
3814600	269
5084257	104
5946740	194
5869341	442
4910365	629
3252925	565
1499305	370
344821	369
5648	810
176498	1721
405217	2801
472145	3793
571469	4337
1131506	4165
2274761	3589
3636497	3088
4739473	2792
5181125	2512
5054389	2386
4648762	2169
4088080	1616
3463073	845
2660197	340
1713465	100
843553	85
302985	157
139109	162
195245	137
230656	53
188084	34
148597	185
211289	340
360776	485
442213	544
367380	333
157189	178
15381	58
52490	13
246413	52
450077	125
577618	257
686920	356
886401	464
1230466	592
1546048	557
1645801	449
1415297	314
1036250	136
706469	113
589517	225
605012	296
586917	338
471325	257
269730	73
185000	2
270241	52
453069	257
575965	386
561485	338
404560	265
234253	145
114580	261
71572	653
80989	1165
120969	1690
198529	1901
301556	1637
64088765	185
87484018	1
109218842	377
118459874	1412
109202644	2848
85001552	4505
58774537	5233
46441044	4913
58139432	3893
91967229	2600
133500449	1285
164294105	601
170460548	409
150826741	464
116845301	500
85985296	338
70687690	173
72458865	50
82278685	0
87278914	45
79627140	98
61983972	146
43638277	226
35066033	229
41270984	185
57958433	160
76323650	197
87259280	298
86913076	477
77789849	765
65849285	986
55997717	1040
50378260	845
47420242	625
44055248	400
38416885	200
30807200	45
22991940	5
16927720	52
13125064	157
11131085	289
9837529	260
8678993	113
7512217	10
6715017	98
6267881	628
6032650	1665
5974561	2818
6393092	3890
7921010	4264
10961210	3528
14993525	2372
18654425	1417
20514880	1168
20191189	2248
18683908	4618
17300873	7481
16855273	10457
16435172	12701
14510081	13325
10107656	12370
4683625	10565
1249585	7738
2762685	4761
9627353	2626
19160149	1297
27036098	725
30278090	637
29583632	656
28740980	596
32397986	389
42629225	106
57656756	1
72379325	90
81511985	324
81621160	692
72760609	905
57701905	898
40141829	937
23994337	845
11532058	673
3864464	585
539684	601
152165	585
859581	586
1252178	706
890138	745
247540	629
50756	505
551018	337
1375876	149
1825490	20
1716845	5
1446685	68
1764833	212
2942105	325
4502024	353
5643584	389
5757764	389
4995332	305
4052618	241
3545064	260
3400018	328
3362522	397
2898890	424
2027668	485
1135906	689
573490	1130
347848	1693
255034	2420
209873	3301
472066	4148
1463689	4436
3253858	4250
5236708	3965
6491365	3277
6298393	2440
4812872	1700
2925812	1261
1576921	866
1322725	592
1778333	404
2180648	362
1988026	257
1253290	121
450068	53
29914	17
74282	4
296776	41
375941	85
238826	106
37141	157
26792	208
251785	202
544669	208
717445	245
642673	292
392005	229
154106	178
58034	164
112914	137
249530	153
361352	185
401986	164
358065	137
236386	82
102170	37
19498	5
25946	13
104900	45
192593	80
224557	117
175760	98
73825	113
10705	164
8548	225
38833	202
46836	113
22369	40
6994	1
62864	97
191880	377
313529	730
354370	1170
281021	1549
127525	1553
67123225	218
97444153	9
129522649	226
144743029	1090
131949746	2509
96741364	4274
59681933	5450
44586506	5554
63182178	4913
107483269	3796
153738000	2273
178049384	1089
169428698	490
135752776	365
97024625	305
72457082	229
68301250	81
76899485	10
84092013	18
79609282	74
63602164	106
45459709	45
34824616	2
35871860	80
45783112	277
57134164	569
65171770	872
68904848	941
70341661	916
71324584	1033
71127421	1277
67108345	1549
58405205	1489
46679229	1130
35620042	673
28573933	180
26087525	4
25838429	212
24844068	545
21249605	729
15685002	641
9983828	281
5888945	5
3869170	185
3739541	785
5032249	1700
7378754	2466
10124010	2740
12032785	2770
12018653	2788
10196393	2425
8268290	2116
8714213	1769
12609341	1345
18598817	1421
23461837	2701
24040360	5057
19960033	8420
13318073	12161
7538650	14144
4415589	14066
3734981	12500
3958560	9181
4468274	5525
6232637	2713
10725376	1089
17845573	298
25075570	98
29558225	97
30635377	130
31961861	149
39103136	101
55709389	117
79156705	116
101051145	80
110921957	205
102820213	466
79071760	881
48410500	1409
21797305	1780
5650100	1669
198965	1332
863969	965
2493145	505
2451850	250
1284260	290
729593	388
1566149	433
2937689	514
3352978	493
2340650	388
721736	293
77818	234
1229600	277
3613597	377
5620768	490
5943236	592
4492577	634
2303969	677
823682	577
904418	365
2374025	229
4207538	153
5515273	113
5582596	125
4483817	232
2761650	461
1149818	901
184817	1465
186541	2137
1052309	3125
2339441	3961
3503677	4517
4148401	4553
4112865	4409
3614932	3929
2924980	2993
2329130	2042
1924333	1300
1590161	765
1355458	361
1123445	212
912925	169
724618	116
554490	90
374740	85
198538	100
78650	90
23465	50
30340	37
50273	90
33850	233
6845	394
14562	514
93193	493
233325	424
358697	305
389992	122
337844	61
267048	85
241249	125
287005	180
368234	193
414981	157
393466	89
300625	52
196253	20
119432	5
92836	4
90890	5
94498	10
90913	29
69017	65
32985	98
7940	193
306	289
11674	261
36661	185
57545	85
65453	5
77338	109
93474	416
120170	848
151805	1352
165380	1693
120445	1625
10785125	337
30786818	146
54900820	244
67323469	898
58718753	2405
33965684	4394
9206986	6010
1030429	6586
14740496	6088
41482125	4762
64992161	2825
73378237	1105
64916865	229
47881480	1
32869413	64
26028704	122
26608900	68
29471285	1
30160969	58
27308125	180
22404434	274
17733869	306
14264105	221
11747677	85
10201069	89
10429402	181
14136842	288
22378997	433
33772580	578
44945858	962
51633314	1585
51580010	2057
46599145	1949
41338837	1405
40325905	733
44697221	365
51313252	592
55402066	1165
54256613	1629
48917268	1537
44316325	905
43960949	360
47312317	634
50126308	1721
48233673	2941
41098514	3650
32657785	2984
27669312	1565
27639405	520
29405968	565
28451593	1377
22982557	2164
15398217	2050
10439073	865
10454197	37
13303826	964
14415154	3989
11219473	8573
5313600	12740
943130	14096
1196957	12724
5206561	9661
9200053	6472
10015760	4041
7583458	2813
4365650	2560
2465965	2000
2249585	1313
3722272	657
9222194	298
23720356	260
50972634	404
88516042	500
125056544	481
146506385	461
142331905	445
113965217	416
73531400	305
36275605	148
12748149	202
3533213	500
2583770	1024
3236841	1609
2720425	1697
2071481	1181
3089113	548
5363785	149
6703985	225
5456581	801
2423252	1322
225697	1384
731965	925
3506845	541
6148565	410
6713000	801
5124685	1377
3094352	1780
2427746	1764
3335125	1378
4612365	754
5013482	232
4380205	34
3523050	25
3407573	72
3730402	80
3689597	125
2654020	425
1052036	1152
87273	2050
702481	2896
2686433	3880
4779605	4517
5746720	4513
5128372	4141
3468818	3706
1729352	3060
565204	2285
76082	1696
41345	1300
205253	997
457364	729
670617	520
737425	425
580829	245
340481	117
236340	52
394985	16
698562	29
884200	82
745780	125
427972	178
267944	250
443725	289
835045	250
1093625	225
1009801	202
648808	164
285781	106
194020	50
336610	85
490376	106
472757	148
279149	200
104506	212
68141	170
136557	130
178114	97
122728	36
33721	18
24386	10
114280	25
198964	109
171680	205
65773	265
317	325
84457	320
281269	212
421105	101
377320	34
205768	13
74565	144
130253	416
336929	776
532349	1189
562426	1573
391858	1553
7765693	106
10083881	160
12003752	397
14241978	1066
17416936	2305
21110184	4057
24048401	5525
25100228	6245
23402101	5993
19506706	4913
14450930	3145
9523933	1480
5487525	405
2671066	50
1114196	101
659600	257
904345	325
1352633	212
1539697	41
1346128	34
1181449	145
1666989	333
3231428	436
5680705	449
8222341	272
10064993	229
10787284	320
10515437	468
9622345	610
8572481	769
7375625	890
5988560	901
4581613	865
3532405	881
3155360	882
3564800	932
4447133	757
5330084	493
5768276	260
5554580	145
4972096	234
4397650	650
4241696	1285
4643165	2020
5530213	2522
6314090	2509
6436917	1885
5567545	850
4202645	181
3265210	80
3529565	466
4901849	954
6217000	1060
6220778	565
4669600	340
2931554	1237
3063625	3656
6108125	7569
10839137	10877
14300840	12308
13957928	10980
9882729	7857
4926085	4520
2502805	2405
3822472	2426
6779876	3842
7962849	5017
6432698	4658
5813645	3172
13265122	1378
34400845	221
68481866	377
107204877	1332
137398450	2026
148813549	2050
137737634	1332
108986441	442
73090069	125
40126553	674
16829140	1513
4496962	1970
912773	1913
2252104	1373
4935365	538
6505153	58
6037426	50
3985274	274
1616345	505
184801	613
131562	544
881701	377
1408552	298
1204493	274
631865	369
512746	481
1249210	596
2380680	680
2916008	794
2279570	848
979940	729
182884	548
743905	421
2485130	425
4327880	442
5008985	370
4257685	226
2628621	193
1099922	493
224093	1189
1600	2340
151957	3757
602218	4961
1496597	5305
2825861	5018
4111705	4264
4609301	3145
3951826	1985
2425385	1261
1001138	1042
485017	1028
993512	970
1854980	936
2262500	778
1880528	466
1088386	185
511897	52
465844	5
760954	10
969097	74
831530	145
499493	208
312320	353
432338	442
697394	425
829672	349
688241	260
414265	145
222993	53
224045	34
328849	50
353506	40
259057	61
140621	72
122825	50
214381	41
296845	32
257725	26
115076	34
9377	50
40405	61
176930	72
290228	85
271477	65
143460	65
28642	100
3380	121
47826	82
73525	45
46324	40
4580	116
15680	288
77300	468
115033	653
80901	821
26569	925
76297	820
9290026	73
16834289	53
21929018	493
22334869	1588
19564290	3362
17570592	5125
19492756	6353
25117913	6481
30188008	5672
30404250	4264
24481346	2592
15373306	1125
7781285	241
4599730	10
5078096	128
6188850	325
5487749	464
3279236	401
1737850	250
2537713	98
5218650	9
7676168	4
8179705	4
6961986	2
5677456	26
5790913	122
7019165	298
7746632	477
6607562	578
3965845	701
1353538	1033
162389	1378
454129	1697
1100738	1828
1092829	1690
496522	1165
190249	520
777257	145
1825256	178
2270425	533
1618938	1073
467560	1466
17658	1570
840346	1525
2278530	1402
3017524	1157
2373200	680
940525	389
80105	333
505481	605
1729493	986
2497514	1025
2020129	578
802216	260
28586	898
544450	3034
2087749	6409
3645665	9973
4401352	12053
4303729	11090
3885320	7913
3649189	4205
3838850	1585
4552645	820
5924564	1690
7695025	3161
8898938	3848
8334100	3393
6349850	2173
6880085	1076
16704250	370
41715752	136
81530410	200
126324458	293
160344784	333
168594644	365
146265778	325
102344905	170
54087562	74
18240818	125
2227345	377
2323528	877
8450785	1373
11791636	1493
9505521	1066
4387861	481
670477	122
149906	226
1475396	802
2274050	1552
1554920	1945
334354	1781
200209	1285
1556253	761
3289961	289
3889288	58
2906657	26
1231298	125
186797	290
358097	578
1185433	925
1680381	1341
1370690	1685
689485	1681
330194	1172
723721	464
1596130	37
2387716	328
2751178	1444
2788661	3280
2695633	5186
2537485	6245
2170900	5882
1519681	4405
778549	2834
321017	1573
360740	1025
691157	1145
900584	1525
721909	1565
296057	1168
17440	657
167642	333
628837	185
1011265	202
991954	290
596360	232
177985	148
25114	97
175825	169
387370	265
417645	346
248410	320
58613	180
30538	100
169600	148
328345	260
344285	265
208709	178
51482	90
3764	9
60201	34
127412	160
117577	229
45349	225
1360	169
48149	121
148945	65
216434	34
187538	50
95085	52
19844	37
12874	17
48325	8
70298	10
51922	17
17645	17
12580	40
46273	109
84762	257
86866	386
53924	544
22338	613
41329	725
114498	689
200117	592
721160	169
2462212	73
8488922	533
19318657	1789
32778554	3665
44295434	5426
48956625	6344
44931578	6253
33615194	5353
19747645	3940
8253706	2500
1888498	1138
183433	314
756802	29
1276785	45
937108	208
334525	370
421012	533
1310945	545
2214250	425
2292802	226
1456776	85
498068	17
412340	40
1481210	160
3060437	410
4059050	586
3830914	640
2539066	529
1089205	370
193250	265
72400	197
392045	290
696625	577
761657	1021
659321	1405
548249	1640
480330	1625
403364	1445
270544	1285
151946	1138
129385	1013
176585	809
175573	625
86708	410
24400	306
183220	425
589517	697
1043585	1184
1244178	1553
1105834	1450
970965	793
1210669	205
1911425	577
2661541	2421
3029480	5780
3088130	9445
3523688	12394
5067226	12681
7482017	10217
9422585	6109
9284225	2498
7033552	317
4607810	208
4903252	1565
9232877	3265
15619050	4090
19581869	3637
18071525	2372
13321936	1157
13312386	370
27529685	90
59969578	208
104158528	485
144745616	650
164502370	610
154131925	442
118055705	305
71099825	290
30919780	514
8284338	901
3246626	1370
7676730	1825
12069397	1877
11440602	1665
6665650	1378
1869677	1201
209905	1296
1694197	1525
4017780	1744
4922692	1721
3954250	1354
2297282	797
1358433	325
1546304	65
2155520	26
2252584	200
1586468	569
653005	1018
85000	1453
68744	1690
304378	1808
409085	1586
330701	1181
399365	545
861796	73
1638125	97
2346836	778
2651170	1849
2544209	3194
2294114	4381
2158138	4729
2167465	3944
2106842	2792
1796666	1769
1239965	1241
662516	1013
252810	1090
93362	1282
77778	1205
87965	722
86509	369
126125	272
237665	442
369746	625
408608	692
309010	650
143521	421
18250	178
12548	34
91496	13
159813	17
156241	17
86785	41
19845	122
2533	269
35425	373
81413	365
110410	202
118273	85
120170	34
110417	85
78649	160
34306	178
4628	85
17082	25
61394	100
98426	305
82948	466
33956	530
14600	424
71492	225
183376	61
274642	58
269029	208
160253	388
44249	450
17485	452
102065	466
219474	505
270409	557
206224	466
83137	324
12937	173
53864	233
185410	458
617801	592
3002312	106
9015569	205
19210969	1521
31934717	4033
43138472	6833
48078770	8660
44649338	8665
33753373	7330
19925425	4810
8143306	2434
1603706	692
138613	20
1354900	146
2586533	442
2613476	505
1789345	369
1197085	181
1257845	89
1525610	125
1342564	241
621045	346
29824	337
360485	197
1719460	26
3323610	25
4098877	205
3555920	493
2119329	821
884969	970
573821	884
1113130	580
1799370	221
1949760	130
1412029	445
619560	1069
124688	1637
94685	2017
286984	2138
376661	2097
255058	2061
120473	1989
196505	1865
498965	1378
792520	773
830450	218
572329	101
206186	533
11072	1377
128962	2080
550210	2053
1126250	1325
1580805	650
1656356	1105
1185028	3434
441125	7157
272260	11106
1780496	13645
5486381	13297
10478221	10177
14521189	5876
15186733	2069
12074969	185
7289906	317
4639970	1697
6788129	3240
12837024	3730
18389277	3088
18943745	1885
14396626	936
10976080	505
18412057	530
43412690	680
83585353	776
126463618	676
154896250	337
156122161	104
129531625	85
86328841	265
43592900	533
14793309	809
3956042	937
5661077	962
10601441	905
11957584	865
8432701	904
3287146	1060
330626	1289
898705	1521
3450226	1640
5410634	1601
5300234	1341
3514122	985
1448100	641
245017	290
6617	37
161825	50
223970	500
183940	1341
301138	2165
649205	2696
986501	2624
1029461	2129
765629	1172
551725	349
839813	5
1706256	394
2776842	1300
3445520	2213
3370000	3060
2585746	3485
1493818	3394
567673	2770
76765	2097
37349	1517
299465	1130
662069	881
933266	773
1005281	802
869200	808
583729	625
309517	425
153025	340
129461	389
151762	481
138980	650
83725	740
62280	689
140149	442
292525	185
409258	58
392562	45
267017	85
143188	146
146305	162
267650	125
411034	85
441045	109
326389	180
150490	229
32425	225
13873	169
45845	85
59085	26
29725	49
2098	145
21074	257
75290	277
103402	250
68868	232
11785	250
11221	305
102593	305
243410	261
319442	153
271753	149
155357	325
91225	637
151348	965
284869	1220
375173	1060
328388	676
175972	241
62308	113
89609	292
261146	650
2043920	845
4424290	234
10598845	677
20653097	2624
32536921	5785
42386049	8704
46162064	10130
42441844	9041
32133517	6610
19260530	3604
8100212	1300
1620452	178
90457	64
1690650	340
3916445	458
5055661	245
4600210	29
3219857	97
1731817	404
710560	657
351796	650
550285	425
1073098	116
1611793	10
1803125	193
1472077	580
788868	785
236756	720
256833	401
900880	170
1669181	85
1884842	169
1334981	333
443200	466
50752	520
616365	541
1793929	533
2617000	601
2415785	901
1310113	1429
295840	2258
264865	2900
1220570	2938
2187629	2417
2159969	1413
1067140	442
89000	29
619569	377
2961621	1225
5750170	1945
6936532	1985
5557625	1570
2707477	1664
958765	3145
2259130	6305
6270500	10370
10484968	13709
12128090	14660
10482336	12560
7298341	8480
5260105	4114
5597573	1233
7178674	164
7562146	353
5694728	905
3036650	1213
2436525	1145
5242320	953
9624673	985
12155701	1237
11427545	1369
11117864	1145
18802741	596
40807729	233
76216225	200
114618313	409
140560388	544
142305325	424
118484977	232
79289129	212
40582825	641
15157568	1530
6332818	2465
8668193	2857
13190949	2664
13621437	2034
9492176	1517
4239482	1234
1439360	1213
1871497	1226
3611530	1130
4263250	853
3048525	605
1111940	505
123716	477
734149	333
2175505	221
3126034	338
2900873	884
1877620	1730
919796	2525
600865	2824
794320	2452
1083690	1480
1248557	586
1473921	317
2059669	949
2884429	2009
3441149	2890
3244660	3112
2264077	2605
1041989	1873
284296	1202
342329	949
970565	1053
1602233	1157
1800701	925
1492210	530
970084	226
549845	205
329362	306
250850	425
198157	416
130960	290
86437	125
86362	145
102402	450
90010	794
76921	965
119816	740
238973	400
371554	98
406970	26
290602	208
106333	477
3490	701
70402	689
258637	436
410330	180
411181	50
279077	101
135341	202
81992	314
120970	281
163909	164
140405	58
61789	65
13513	200
56585	370
156074	520
215045	509
173345	416
75314	225
28496	40
100049	25
257049	200
391865	505
399908	818
279513	1105
116365	1172
14760	954
8770	580
66097	218
130090	65
158453	169
161060	409
1919725	197
4095169	293
11027620	1082
21947425	2880
33733570	5408
42156980	7732
43896689	9050
38776456	8713
28470173	6730
16916810	4145
7306120	1781
1659065	400
2512	74
1031714	377
2967885	730
4385081	730
4472770	565
3393329	445
1803113	554
565325	802
233896	866
765137	745
1589509	461
2058964	293
1829665	298
1076714	369
337009	340
24221	170
217642	8
656900	100
1021445	457
1108388	772
968740	746
712168	365
537170	65
559874	317
873860	1224
1420813	2401
2032082	3301
2331712	3485
2064985	2941
1306693	1945
482248	1000
129593	505
481914	305
1260145	200
1889369	61
1918530	5
1403856	173
702025	445
238532	629
222265	904
716625	1769
1876360	3809
3849169	7208
6457729	11437
8835560	14760
9684421	15949
8196560	14161
4891904	10133
1550642	5525
21529	2194
720800	650
2252905	340
2714770	377
1463050	241
99472	32
926378	90
4586996	617
8827978	1373
10227940	1801
8015585	1513
6674053	810
14516424	117
38028938	65
75511165	613
115438373	1332
141571445	1620
141753860	1514
115623405	1025
74721924	605
36051265	410
12063496	530
5312962	929
9101549	1385
13893953	2005
13853113	2482
9090801	2890
3472069	2962
401108	2421
298120	1460
1272100	629
1457249	98
672841	13
52205	113
552040	232
1897604	234
2911705	290
2809172	409
1835978	653
927914	901
705077	1040
955321	1076
1025642	1088
766309	1300
770221	1709
1779133	2125
3771365	2248
5669242	1961
6155188	1537
4729954	965
2262884	493
362665	260
134480	208
1364449	274
2819216	325
3328481	274
2565725	130
1239097	53
272450	10
65194	5
346649	10
571793	20
468925	32
182696	16
28717	9
116420	36
280585	128
314429	256
190450	346
67405	349
108117	274
281296	137
399424	65
340433	117
160450	353
28729	593
75092	725
231545	698
335917	450
290450	200
160889	49
85765	9
132821	50
232025	128
257625	205
167045	241
46724	244
21025	274
123520	257
263204	200
319337	145
264865	109
163573	185
94676	349
74113	569
56840	629
20250	625
9281	565
95677	450
280201	290
450845	137
473490	37
335914	1
158600	10
108641	50
1838225	340
1212205	706
6498706	1492
18019024	2762
32346661	4322
43453636	5837
46315877	6833
40090649	6989
27640960	6068
14521226	4356
5040617	2525
714170	962
57565	117
582233	85
730925	522
502985	941
633229	1040
1456330	754
2451626	421
2832485	208
2397449	245
1725125	400
1620085	580
2320506	626
3236461	545
3488725	333
2790506	146
1670365	25
1042570	29
1365300	122
2350948	245
3137553	306
3174037	257
2524813	170
1869473	61
1734554	85
2153210	320
2620168	850
2683397	1546
2160625	2257
1346746	2713
653588	2600
278536	1940
171225	1105
164273	361
155090	40
144821	74
181768	245
339001	340
691762	221
1344205	100
2333578	442
3465713	1685
4399898	4160
4728385	7677
4328848	11492
3425633	14489
2413370	15908
1627357	15353
1179400	12708
995857	9090
948260	5329
932845	2465
795889	765
431561	289
39377	554
265837	1105
1893653	1665
5006753	1889
8313289	1885
9626345	1600
7746949	1217
4570705	909
5747593	701
18133064	720
44946746	802
81964073	905
117473672	922
137290709	754
132582965	509
105057544	349
66317213	389
31121537	740
10311985	1369
4978466	2056
8541098	2729
12370385	2920
11436413	2740
6497140	2210
1620450	1385
158405	697
2144272	234
4946965	26
5847521	18
4246002	68
1681402	72
125012	65
281554	116
1296369	257
1824260	512
1341700	784
500274	1066
369010	1405
1417313	1666
3085010	1877
4346888	1856
4539202	1769
3740560	1433
2554565	1170
1580740	784
985410	493
640340	250
377320	122
158602	53
31657	68
52	89
5245	106
17522	100
99658	80
332264	85
658346	97
893248	85
821650	50
484657	4
137173	18
71073	121
369841	265
815824	404
1028761	468
865544	410
441704	333
88180	277
13957	325
160772	404
302800	500
289033	541
133685	509
34297	346
106496	170
294100	61
426106	17
390949	10
229697	29
88298	65
74529	130
156245	241
212665	325
179856	356
84200	365
28090	338
60813	260
139529	218
189032	194
182305	169
200386	153
294920	145
450925	221
548480	340
488285	458
277733	533
77669	485
45433	340
214209	205
470353	85
611290	58
564965	64
610250	884
525121	1745
5095485	3026
14598946	4297
26561842	5140
36546869	5386
40342900	4877
36653506	4196
26991082	3613
15551917	2965
6312773	2357
1365605	1508
183968	724
664970	218
946226	250
504362	724
97682	1289
707005	1513
2520649	1460
4706816	1233
6086180	1090
5974160	1189
4595344	1313
2931485	1220
1849165	909
1597325	445
1871498	164
2100221	153
1948810	353
1461825	520
940682	445
601793	194
511904	26
554525	136
630802	401
714996	557
855410	404
1055821	169
1304840	325
1479818	1224
1529306	2669
1458925	3793
1381705	4033
1413248	3121
1626920	1649
1947809	457
2184660	218
2131730	820
1748477	1460
1124713	1405
499300	629
163045	16
373090	881
1292276	4090
2928901	9445
5032994	15392
7017914	20052
8054197	21200
7477586	19301
5365781	14690
2608693	9217
582786	4545
252850	1573
1391234	410
2721445	389
2976425	929
2099920	1381
1505188	1469
2909378	1313
6487885	981
10205000	640
11124545	346
8499569	145
5928257	68
10539677	45
28487610	100
60061828	197
97057610	421
125896725	677
134507781	1013
119208772	1300
86890193	1313
50564273	1205
23024585	1044
9513360	1025
7217033	1274
9066185	1733
9104993	2210
5928557	2440
1947688	2250
263353	1573
1692626	901
4426952	338
5851368	116
4829653	122
2347445	178
363157	245
134114	296
1333237	481
2627882	829
2898869	1345
2103481	1865
986346	2117
407912	2050
591002	1682
1225172	1300
1868789	1066
2288250	1025
2490793	1145
2511274	1189
2256740	1037
1669373	640
882548	260
236548	36
7585	26
200133	185
544490	296
744692	290
713700	200
613561	81
612548	8
711604	5
713908	29
495125	29
164740	13
5410	17
225220	72
738893	170
1171845	288
1213505	370
828616	425
311170	425
23537	477
89690	500
339065	625
506637	629
424901	634
209537	514
54548	305
71405	125
192781	29
271360	5
225856	49
114053	117
52442	169
89597	225
171713	289
204178	325
150434	400
66978	433
31826	436
59841	388
93122	292
83044	218
33856	144
26512	125
121444	185
293288	256
450578	365
491984	401
417184	400
281689	325
165920	272
101393	200
70317	160
44564	130
95869	832
1437265	1508
4502170	2642
9288877	3973
15471080	5161
22156514	5690
27670117	5218
30182353	3925
28199602	2285
21918553	1233
13301633	884
5446381	1189
879556	1517
120445	1453
1685538	980
3262705	628
3474001	865
2729480	1961
2683610	3364
4613608	4498
8190209	4660
11519050	3809
12434314	2592
10382644	1665
6588002	1341
3221140	1556
1848002	1744
2279972	1521
3131725	964
3075802	477
1899994	485
524545	842
2084	1233
527488	1252
1410065	746
1877033	178
1930261	122
2357545	793
3928349	1945
6342037	2977
8347469	3285
8581480	2705
6779053	1690
4038970	793
2036025	244
1530504	40
1943866	13
1979114	36
1104200	100
97469	205
459841	260
2912297	225
6502352	400
9094933	1570
9117513	4693
6833545	9901
4180345	16232
3049457	21410
3739613	23698
4828762	21217
4512274	15178
2524730	8324
432004	2977
260837	689
2518585	1105
5475889	2533
6666194	3370
5057296	3016
2279938	1810
1255025	628
3522649	65
7560400	85
10103746	208
9486536	146
8620625	32
13989125	226
31668185	898
61661309	1825
96024605	2405
121862018	2269
128391562	1480
112949797	685
82035425	356
48361220	706
22684338	1440
9541381	2125
6610601	2378
7893889	2089
8401634	1517
6567093	965
3790706	549
2043040	325
2034106	221
2846749	197
3177781	136
2448338	65
1146465	4
216400	52
108125	353
594922	970
1101362	1832
1283234	2628
1230770	2953
1286909	2669
1559245	1874
1901365	865
2040210	260
1844170	241
1425553	712
1034450	1280
824805	1450
765392	1225
729572	769
634762	346
502130	193
390728	261
341785	410
317914	433
287464	298
224506	148
150146	26
83210	18
33025	72
17338	89
65137	90
202448	90
411714	109
621149	197
695209	314
600757	394
386290	450
193505	424
124514	410
193202	449
300961	468
370276	484
353657	461
309328	433
279250	340
275026	234
241796	136
158413	41
52205	9
5321	61
59904	221
175669	442
258376	610
233285	725
123930	729
26242	585
28345	388
142409	185
281690	73
364905	65
338605	117
250850	178
167362	245
118333	232
82205	221
44852	180
23021	194
65237	221
196705	274
378170	320
511901	333
509697	313
354560	1666
1042873	2194
2638898	2980
5871604	3890
11155477	4537
17834512	4525
24111506	3925
27771752	2785
27028688	1570
21874905	637
14097493	296
6532337	457
1588372	853
117380	1192
1346197	1405
3522080	1521
5033125	1709
5145125	2056
4213265	2581
3165178	3042
2918106	3400
3813289	3508
5437485	3242
6956776	2600
7437785	1845
6416786	1138
4298797	629
2023605	457
634589	509
531522	680
1235581	820
1778888	832
1507060	666
627010	349
123853	125
951714	61
3170677	289
5699889	761
7145069	1249
6678592	1682
4933850	2020
3345641	1997
3198600	1810
4535497	1570
6176389	1261
6559705	932
5064509	482
2428301	148
405866	58
419506	293
2604370	730
5709266	1157
7938625	1466
8037850	2106
6126077	3593
3366250	6725
1153210	11194
211357	16178
302693	19601
642292	19930
642001	17189
450385	11925
742160	6605
2024100	3060
3949325	1973
5294290	2600
4975273	3460
2922226	3434
629224	2500
155261	1160
2453705	212
6267825	50
8858601	484
8189172	1025
5756186	1378
6649138	1537
17347709	1745
40942649	1885
73874825	1781
105949089	1385
125165044	698
123677300	100
101949520	65
69029960	610
36768433	1476
14336929	2050
4575490	2165
4016818	1746
6699173	1250
7967557	1033
6523337	1258
3633109	1537
1226468	1513
173749	1105
149957	505
339561	65
302420	116
140986	676
119144	1450
305000	2225
535874	2545
695213	2473
853128	2020
1202084	1465
1704209	845
2097316	365
2090581	109
1634728	97
1070074	260
823784	521
1089754	754
1624781	857
1965781	820
1811816	653
1237149	512
575650	369
170122	296
94498	250
179842	277
223812	245
172836	212
142376	125
262673	73
545753	72
844850	164
989896	288
912968	424
683281	450
405032	386
192436	290
76409	160
47952	89
73924	121
131954	290
186705	505
220337	730
217429	953
195464	1013
181802	850
188549	533
184669	229
146521	65
75140	130
19844	365
30501	673
111700	850
208744	865
239714	685
178056	397
75409	194
19258	65
67853	80
192937	169
310084	233
339425	225
277405	170
186386	85
133780	34
142069	98
179965	225
202277	410
182225	541
129224	585
76154	452
50461	340
50929	180
2790324	1733
4397522	2045
5535485	2340
6387797	2804
7879057	3305
11009213	3625
15749773	3545
20710337	2980
23479937	1945
22158050	929
16820725	293
9561565	289
3352285	740
348914	1321
817128	1781
3332873	1962
5899793	2080
7131140	2312
6834085	2873
5613849	3434
4262549	3842
3251866	3785
2683178	3226
2594826	2381
2904212	1480
3422290	778
3865370	416
3842120	305
3230569	333
2180029	442
1116697	565
398600	613
143201	562
194689	425
342281	293
509617	212
819026	306
1473896	610
2642281	1130
4266704	1789
6130378	2385
7754834	2701
8608309	2561
8265725	2146
6787394	1450
4657405	761
2721946	290
1672301	153
1777826	277
2740610	533
3979700	720
4990813	905
5458649	1346
5191844	2176
4168000	3924
2537369	6409
859513	9490
9266	12608
643556	15025
2611849	15977
4778024	14976
5712148	12457
4809418	8584
2808929	5210
1199981	2788
980765	1985
1735058	2330
2073833	2965
1224657	3145
139945	2448
956125	1226
4817680	229
10102600	144
13016660	1028
11056105	2404
6287437	3562
6206338	3825
19404680	3170
49194098	1849
89066573	725
124492474	101
140466320	160
129608713	657
97182077	1205
57196105	1412
24467845	1226
7035506	865
3279842	500
5733437	392
7288537	500
5376425	730
1933146	793
87701	720
935397	493
2974473	229
3955865	49
3083497	34
1530850	208
1183069	541
2689000	1033
4954052	1490
6153505	1856
5252938	2000
2926801	1808
765706	1256
87785	657
985217	221
2480276	109
3429961	317
3318125	680
2429960	1066
1343833	1210
537160	1138
128068	890
50489	541
215060	229
537314	90
852793	145
968201	313
763425	464
374884	485
116266	314
270288	97
836068	34
1530290	208
1965893	514
1957045	797
1600193	901
1118770	757
740584	452
516616	146
388225	25
265060	61
142900	234
51665	485
21901	778
41765	1066
83026	1258
125425	1225
164738	985
187425	554
175412	250
128068	202
77956	482
69745	884
121936	1097
199413	965
233813	650
192980	305
117412	181
65449	281
71840	461
105689	538
106405	425
65416	234
45396	61
116077	85
273325	272
414245	425
418538	493
278837	461
94804	353
34000	221
155450	194
377764	169
517745	170
5014865	1813
7728370	2164
9220868	2257
9018260	2165
8012201	2117
7897860	2313
9924273	2578
13790633	2509
17426546	2029
18469450	1224
15871162	442
10711370	74
5419188	369
2250560	1181
1931098	2036
3469924	2741
5148800	3060
5691010	3145
4987585	3301
3807109	3445
3006184	3533
3025224	3481
3653026	3034
4504325	2329
5128418	1600
5251793	905
4848274	401
3930761	185
2732117	104
1541405	170
640804	325
150224	586
10525	801
44629	890
125450	677
233360	409
447008	234
914794	493
1854562	1322
3443840	2405
5762401	3265
8408633	3592
10553129	3232
11182466	2290
9789008	1285
6769121	610
3383761	340
1016905	425
487786	541
1555186	584
3302018	661
4771849	1017
5493220	1765
5375522	2989
4565672	4450
3190356	6376
1603265	8377
497845	10625
648457	12505
2256301	13840
4471109	13666
5808065	12148
5212373	9290
3044072	6274
837845	3904
63466	2817
811117	2740
1753133	3044
1533250	2986
444650	2173
512546	1073
3617000	292
9066242	257
13263914	1093
12531385	2368
7001810	3277
2910802	3445
9695585	2788
33687569	1609
72130090	554
112399757	65
138344629	122
138479248	533
113406530	890
74431537	1069
37098797	970
12662465	724
3276149	488
3393701	421
5477768	401
5066009	481
2447393	500
428669	425
974500	317
3553600	212
5984201	122
6526130	109
5158453	221
3208525	533
1947901	922
1648385	1258
1653224	1481
1314178	1522
613813	1250
120089	801
294346	401
1064170	145
1891413	61
2279141	125
2149177	272
1813153	481
1543597	698
1417396	901
1283024	1097
1041345	1037
771997	848
612170	529
597956	256
604418	160
478565	250
241237	410
101461	522
