6841.1	22.804
6949.6	26.077
6905.3	28.425
6731.5	30.265
6464.4	30.806
6149.6	30.414
5786.8	30.806
5388.6	31.257
4908.3	32.65
4326.4	34.234
3626.7	36.401
2788.8	37.656
1851.9	37.216
906.04	36.401
628.37	35.847
1457	35.903
2335.7	37.202
3072.9	40.311
3616.2	43.417
3934.1	47.518
4031.7	50.478
3937.3	51.923
3705.8	50.99
3402.4	48.847
3082.3	46.239
2782.8	43.463
2470.2	41.629
2071.5	40.804
1510.6	42.059
735.61	43.966
357.55	44.721
1578.8	45.31
2988.4	44.598
4490.2	44.294
5956.9	43.174
7286.7	42.438
8368.2	41.437
9103.8	41.231
9439	41.11
9336.4	41.725
8806.3	41.012
7892.3	39.623
6682.3	39.051
5292.5	38.949
3870.5	38.053
2594	38.949
1725.6	39.115
1537.6	39.051
1767.2	38.328
1973.2	36.62
2015.1	34.713
1966.3	33.838
1991.6	31.575
2245	31.064
2698.3	30.806
3219.2	29.53
3656	28.792
3921.4	26.571
3956.8	24.187
3741.7	21.378
3295.3	18.868
2656.9	17.464
1903.9	16.553
1140.8	18.028
662.4	18.788
920.19	20.616
1402.9	21.401
1772.7	21
1966.6	19.209
1983.7	17.464
1865.8	14.765
1690.7	12.369
1548.9	10.817
1518	10.05
1575.3	9.8995
1645.2	9.0554
1646.9	9.2195
1538.6	9
1308.1	8.4853
964.27	8.0623
539.74	7.2111
99.569	6.3246
386.08	6.0828
782.1	4.2426
1091.8	4.1231
1307.3	3
1424.5	2.2361
1474	2.2361
1497.9	2.2361
1563.3	2
1696.7	2.8284
1869.9	3
2039.5	3.6056
2148.5	4.1231
2165.7	4.4721
2082.3	4.4721
1894.8	4.1231
1642.7	4.4721
1367.8	4.4721
1130.5	5.3852
987.77	5.3852
932	5.3852
919.3	6.3246
882.26	5.831
769.88	6.0828
589.08	5
339.37	6.0828
72.402	5.831
271.98	6.0828
548.39	5.831
755.71	6.0828
872.22	7.2111
883.75	7.2801
782.44	8.0623
604.67	9.2195
453.51	9.434
529.21	9.0554
830.1	9.2195
1175.5	9
1490.2	7.8102
1719.8	8.0623
1861.4	8.0623
1882.4	8.2462
1792.1	8.9443
1590	9.4868
1316	9.434
983.97	9.0554
634.91	8.4853
301.01	8
122.54	7.0711
292.04	7
443.4	7.0711
515.9	7
512.88	6.4031
444.95	7.0711
333.16	7.2111
195.62	6.3246
57.009	6.7082
83.187	6.7082
180.62	6.3246
264.51	6.7082
327.48	6.3246
378.58	5.831
428.79	6.3246
485.27	5.831
553.51	6.3246
613.71	5.831
663.36	6.0828
696.92	6.4031
713.15	5
719.51	4.2426
721.55	3
721.12	2.8284
719.32	2
716.04	2.2361
704.5	3.1623
673.03	2.8284
624.89	3
558.14	2.2361
477.51	2.2361
376.96	2
291.87	1.4142
201.02	1
140	1
87.71	1
58.6	1
8749.5	26.926
8516.9	29.547
7677.8	31.016
6405.2	33.106
5064.3	33.838
4263	35.355
4440.5	35.903
5185.1	34.828
5817.2	34.015
5938.5	31.906
5419.4	30.463
4295.9	29.428
2766.4	29.698
1287.1	31.401
1603.2	33.615
2962.3	37.947
4019.1	41.231
4528.1	45.618
4438.9	49.729
3853	53.009
3007.2	54.148
2396	53.759
2560.1	51.624
3255.3	48.374
3879.5	44.777
4119	41.231
3850.7	37.643
3097.1	36.056
1992.6	36.056
1012.1	37.947
1590.7	40.162
2885.5	44.654
4090.7	47.096
5075.2	50.329
5857.2	50.99
6540.9	50.537
7216.2	48.754
7911.3	45.122
8541	40.608
8947.7	38
8995.6	35
8583.6	33.242
7701.5	33.838
6437.4	34.205
4974.5	36.056
3612.6	38.588
2738.4	39.925
2576.2	40.804
2726	41.34
2679.5	40.608
2239.9	40.608
1464.2	39.115
894.42	37.483
1693.8	35.128
2903.6	31.906
3970.5	27.313
4672.1	23.195
4923.4	20
4704.1	17.464
4039.7	16.125
3070.8	16.971
1946.2	18.111
943.31	20
820.02	22.361
1390.7	24.698
1783.2	25.632
1851.2	25.632
1643.5	23.324
1313	20.1
1153.8	15.556
1380.8	12.166
1781.9	7.6158
2101.6	6.4031
2221.5	5.099
2115.4	5.099
1820.3	6.4031
1419.3	9.0554
1032.8	10.63
774.78	12.042
693.85	12.806
630	13
466.08	11.314
213.34	10
388.5	7.0711
836.09	4.1231
1260.5	2.2361
1578.9	3.6056
1735.7	5
1736.2	5.831
1638.4	6.3246
1569.9	7.0711
1656.9	7.2111
1893.8	8.544
2162	9.8489
2321.1	9.8489
2304.2	8.544
2075.5	6.7082
1667.1	5.099
1182.3	3.6056
807.75	2.2361
837.64	1
1110.6	1
1321.7	4.1231
1345.8	6.7082
1165.5	8.544
827.61	10.296
473.93	10.44
526.64	10.296
886.18	10.198
1184.7	9.8995
1302	10.05
1207	10
905.98	10.05
435.78	8.4853
198.65	6.3246
756.67	5
1269.9	5.099
1635.1	5.831
1806.3	6.3246
1766.9	7.6158
1538.5	9.4868
1223.2	10.817
982.6	12.166
1023.2	13.601
1269.6	14.318
1493.7	13.038
1591.4	11.402
1501.5	9.434
1246.4	8.0623
915.44	5.831
682.82	4.1231
776.19	3
1044.1	3
1257.3	5.099
1344.4	7.0711
1279.9	9.0554
1109.6	10
935.21	10.05
893.99	10.63
1004.7	10
1147.6	10
1202.6	9.0554
1115.8	8.6023
874.46	7.0711
521.31	5
278.66	3
584.95	1
988.42	2.2361
1293.7	3.1623
1451.3	5
1421.4	6.0828
1222.8	7.2111
875.84	7.2801
438	8.0623
70.838	6.7082
464.02	6.0828
803.76	5.6569
1017.3	5.099
1095.1	5.3852
1030.2	3.6056
865.67	3
659.84	2.2361
469.14	3
379.38	4.4721
387.66	5.3852
399.71	5.3852
11592	37.108
11117	41.677
9421.1	45.354
6671.2	46.325
3316.9	45.541
1550.1	41.773
4433	35.128
7078.4	28.178
8654.8	20.809
8979.2	17.464
8098.5	19.647
6332.5	25.318
4394.2	33.302
3612.5	39.623
4584.9	45.651
5802	51.264
6294.2	55.027
5765.8	57.454
4241.9	57.428
1993.3	54.489
627	50.22
3135.2	44.272
5150.1	38.897
6358.7	36.056
6600.5	35.057
5885.9	37.59
4462.2	40.497
2732.1	44.011
1742.3	47.802
2426.9	50
3261.9	51.624
3429.4	51.624
2921.7	51.088
2432.3	47.802
3448	44.385
5623.5	40.2
7949.7	37.216
9876.7	36.056
11059	36.497
11334	37.947
10680	40.46
9258.2	42.19
7303.9	43.417
5150.3	43.863
3128.3	42.953
1548.6	41.037
740.23	39.459
708.45	36.77
699.88	34.205
838.97	32.558
1398.5	31.321
2097	31.828
2678.6	33.242
3039.7	34.205
3181.6	35.468
3213.9	34.132
3281.8	32.757
3449.8	29.155
3618.4	25
3665.5	20.616
3450.6	16.125
2928.6	12.369
2153.2	11.18
1211.5	12.728
421.01	17.088
886.01	21.378
1556.1	25.495
1983.3	28.071
2110.1	28.601
1981.5	27.659
1705.7	24.187
1448	19.925
1373.4	14.765
1496.3	10.05
1678.5	6.3246
1802.7	5.3852
1795.8	5.831
1651.8	8.4853
1378.1	12.369
995.87	16.155
535.7	19.235
165.49	21.84
556.54	21.954
1005	20.396
1329.4	17.029
1469.5	14.318
1420.4	13.153
1228.4	14.422
1088.5	16.553
1283.3	18.248
1747.4	19.105
2251.6	19.647
2602.9	19.925
2713.4	21.401
2543.7	23
2107.2	22.804
1510.6	21.587
942.02	18.788
828.33	15.811
1205.1	13.153
1571.3	13.342
1727.9	15
1641.4	16.553
1333.1	18.111
884.88	19.849
458.7	21.84
481.66	23.77
801.24	24.187
1026.2	24.331
1064.1	23.431
914.1	21.024
604.67	18.028
210.15	15.232
273.16	12.166
675.43	9.434
999.92	9.2195
1206.8	10.817
1271.9	14.036
1235.1	18.358
1159.5	21.541
1127.1	23.409
1227.8	23.707
1412.1	23.537
1594.4	22.204
1696.9	20.025
1686	17.692
1528.7	15.133
1244.5	11.662
873.12	8.0623
512.39	4.4721
428.57	5.831
674.42	10.05
918.51	13.601
1034.5	15.297
1006	16.643
857.72	16.492
643.8	15.652
479.55	15.232
497.52	13.928
629.34	12.53
721	10.44
693.18	6.7082
565.6	4.1231
350.7	1
180.55	3.6056
347.92	6.0828
587.89	7.8102
771.37	9.0554
868.36	9.2195
872.98	10
821.54	9.8995
748.32	10.05
697.09	9.2195
675.61	8.0623
669.99	6.4031
648.09	5.099
598.42	4.1231
535.06	2.8284
482.83	3.6056
453.02	4
450.26	4.4721
435.78	4.4721
393.91	5.099
319.75	5
253.14	5
227.01	5
10302	49.649
10785	55.471
10207	58.694
8423.1	57.489
5510.1	52
1790.8	42.802
2366	28.46
6100.5	14.036
8933	8.6023
10398	19.849
10327	31.257
8956.7	40.311
7092.3	46.239
6228.5	50
7150.1	51.4
8533.6	50.04
9045.4	47.885
8155	44.407
5926.3	42.202
3206.9	43.186
3225.9	46.53
5962.2	50
8203.9	51.478
9106.9	50.695
8503.6	46.4
6652.8	40.447
4202.2	34.205
2515.6	31.064
3036.5	32.558
3827.5	39.925
3515.6	48.166
1936.1	55.803
619.95	60.745
3625.9	61.612
6472.7	57.315
8622.7	48.836
9740.7	38.601
9810.8	26.627
9149.6	23.022
8303.8	28.425
7810	38.949
7690.8	48.042
7520.8	54.203
6904.3	57.009
5777.6	56.08
4485.2	50.249
3634.7	42.048
3496.1	31.906
3478.1	22.627
2929.4	20.518
1707	27.803
1001.9	36.878
2695.8	43.658
4446.8	47.434
5536.2	47.043
5671.4	41.869
4797.7	34.713
3161.1	26.401
1446.2	15.811
1989.8	8.0623
3498.8	10.296
4352.1	17.029
4281.2	23.345
3347.6	27.295
1978.2	28.636
1558.3	26.476
2707.1	22.627
3719.9	17.72
4010.4	13
3478.4	12.042
2261.9	15.232
671.05	17.804
1084.7	20
2409.1	20.518
3164.3	18
3239.7	15
2686.3	12.083
1711.9	10.44
605.48	13.038
406.52	17.464
953.72	23.022
1010.2	28.018
585.29	31.89
342.65	33.541
1156.4	34
1874.5	32.202
2229.4	31.145
2087.2	30.806
1470.5	32.696
674.82	35.355
1106.1	37.483
2154.8	38.639
2966.7	39.812
3312.6	39.357
3123	37.483
2460.1	35.355
1467.1	33.377
436.87	29.967
839.49	26.926
1605.1	24.021
2026.8	23.259
2055	23.601
1755	25.02
1232.7	25.807
645.72	24.739
240.52	21.954
460.06	18.682
700.15	13.892
812.31	10.198
818.64	6.4031
747.01	4.2426
609.26	6.4031
409.92	9.0554
288.09	10.296
503.52	10.44
855	8.6023
1155.4	5
1350.3	4.4721
1393.1	9.4868
1318.1	15.524
1192	21.095
1155.6	25.495
1280.2	28.601
1484.8	30.15
1657.8	30.414
1710.4	30.067
1606.1	28.018
1354.1	24.042
997.55	19.647
653.81	17.029
580.86	16.643
813.89	20.224
1053.7	24.597
1169.3	27.313
1130.7	27.203
951.1	26.42
718.73	23.345
571.15	19.849
601.32	16
692.43	11.662
686.96	7.2111
559.15	4.4721
324.01	5.831
159.18	9
377.72	10
595.81	11.18
698.56	9.2195
663.87	6
579.57	2.2361
588.15	2.2361
753.67	5.831
948.32	9.2195
1038.7	11.18
986.35	12.083
782.04	13.342
471.42	14.142
240.44	14.142
442.02	13.416
683.59	13.038
822.52	12.042
806.91	13
679.46	15
488.97	16
315.5	16.401
239.73	15.524
220.93	14.56
9314.7	35.903
9406.3	39.699
8642.7	43.324
7112.6	46.098
5053.5	47.381
3117.9	45.122
3005.3	39.56
4781.8	31.401
6716.3	19.235
8181.6	7.2801
9011.1	13.928
9195.9	28.425
8809	42.72
8032.2	54.129
7074	61.522
6169	64.537
5519	62.298
5175.1	55.902
5082.2	47.434
5102	38
5194.3	33.377
5423.1	35.171
5830	40.817
6350.5	47.011
6828.1	51.196
7060.2	50.448
6864.1	47.634
6158.1	42.544
4919.6	36.878
3246.3	36.056
1502	39.459
1841.9	45.618
3842	53.151
5727.1	57.009
7152.1	57.489
7887.8	53.907
7857	46.615
7100.2	37.014
5919.9	26.476
4987.6	22.091
5177.4	29.155
6395.2	39
7762.5	48.836
8606.1	55.543
8625	58.523
7727.2	57.385
6045	51.788
3843.5	42.379
1602.4	29.698
1400.2	18.028
3017.5	15.264
4160.7	24.698
4599	37.202
4383.9	46.271
3647.7	51.43
2599.3	52.839
1441.4	48.26
371.72	39.699
591.69	27.459
1270.3	13.892
1744.5	3.1623
2032.3	14.142
2172.3	24.413
2198.6	33.242
2135.8	37.162
2005.7	38.471
1836.6	35.693
1625.1	29.069
1429.2	20.025
1276.7	10
1223.9	1.4142
1277.1	10.817
1366	18.974
1450.1	23.409
1532.7	25.942
1688.3	24.042
1926.9	20.248
2173.2	16.279
2281.5	15.652
2133.1	19.105
1668.3	25.942
919.97	30.871
82.219	35.44
980.05	38.833
1790.9	40.2
2287.3	41.725
2353.7	42.297
1970.9	42.19
1203.7	43.463
318.99	44.147
1023.8	47.634
1983.1	50
2654.7	51.856
2940.3	52.612
2802.6	51.313
2304.8	48.765
1599.2	44.777
952.47	40.311
884.08	37.121
1295.1	36.235
1622.6	36.401
1740.3	36.401
1646.3	35.847
1408	34.525
1099	31.89
786.23	28
530.45	24.083
339.23	17.263
219.21	10.77
148.95	7.2801
90.139	10.198
90.874	16.279
166.69	22.204
274	24.413
402.87	24.739
529.14	21.932
663.87	19.416
785.08	18.682
875.02	22.204
900.44	27.803
837.8	34.205
698.71	39.812
585.3	43.463
708.66	46.819
1061.1	46.53
1431.5	44.385
1710.6	40.224
1823.1	35.014
1729.6	30.232
1455	28.178
1079.6	30.017
738.95	33.015
661.64	35.171
840.86	34.886
1007.1	32.573
1052	27.731
983.11	21.932
835.14	15.297
664.31	9.434
517.65	8.6023
406.34	10.63
285.95	13.153
184.17	15.652
179.89	15.232
285.43	14.56
384.54	11.402
442.41	9.2195
424.82	9.0554
366.99	12.166
305.95	16.279
287.2	20
341.01	21.932
414.45	21.024
464.8	19.849
471.93	17.263
412.38	14.765
282.7	13.416
90.139	13.153
193.21	12.042
455.52	11.045
679.11	10.817
811.26	9.2195
823.74	8.0623
701.92	7.2801
476.92	6.7082
220.44	6.0828
10623	28.178
10277	28.425
8899	33.422
6791.8	40.162
4417.1	47.381
2668.6	51.4
2967.5	50.695
4405.5	42.953
5738.6	30.414
6757	13
7498.1	10.198
7984.2	31.241
8196.8	51.42
8090.6	66.129
7639.3	74.202
6985.7	74.431
6350.4	66.31
6005.5	52.402
6049.4	35.777
6325.6	25.239
6627.2	32.527
6852.5	45.486
7016.9	55.109
7178.5	58.694
7303.3	54.818
7243.9	45.793
6834.7	35.114
5923.8	30.463
4488.2	36.249
2619.9	45.891
715.1	53.6
1960.9	55.57
3966	53.413
5622.4	47.76
6762.6	43.29
7317.2	41.049
7297.8	41.231
6828.2	42.544
6129.6	40.361
5605.5	33.541
5614.7	26.926
6224.8	26.077
7065.5	36.359
7700	50.695
7818.9	62.968
7262.3	69.029
6028	66.483
4247.5	55.902
2230	39.623
1176.3	17.464
2571.7	6.3246
3971	30
4758.7	48.042
4838.7	59.682
4257.7	64.475
3165.1	61
1791.3	51.624
388.86	37.336
863.89	20.248
1762.6	5.3852
2280.4	13
2421.8	23.087
2283.2	30
1993.5	31.257
1691.5	29.732
1478.1	25.495
1411.2	22.472
1461.3	19.925
1576.4	20.025
1679.2	18.028
1682.7	14.213
1573.7	9.2195
1418	5.831
1405.4	10.44
1687.2	15.62
2129.8	19.925
2503.7	20.616
2633.9	18.028
2450.1	15.556
1961.7	17
1215.2	24
372.6	32.202
635.36	41
1363.2	46.648
1849.5	50.289
2015.8	52.802
1844.9	54.129
1388.3	55.785
745.02	57.201
359.67	59.135
956.72	60.108
1603.2	60.033
2077.2	58.796
2329.4	57.14
2341.4	52.402
2117.9	46.043
1710.2	39.623
1193.6	33.061
788	27.659
866.61	24.187
1278	22.204
1655	22.204
1857.3	22.627
1854.5	24.331
1640.7	25.495
1274.9	25.06
823.48	24.187
384.67	20.518
114.14	16.031
289.28	10.296
400.03	8.0623
371.36	11.402
291.82	17.72
332.48	22.847
543.01	26.401
782.81	27.203
978.23	25.807
1079	25.08
1060.2	27.313
926.21	32.202
672.37	39.013
387.12	47.508
399.59	54.332
761.55	57.489
1151.6	58.138
1457.5	54.562
1621.9	48.26
1622.7	41.881
1487.2	36.401
1240.9	34.713
951.38	36.125
699.48	37.014
547.08	37.483
529.92	35.014
586.4	29.833
680.08	22.361
793.28	14.422
877.07	7
891.27	4.1231
804.56	7.0711
609.43	9.434
336.4	11.045
129.99	10.63
340.85	9.0554
532.81	7.2111
606.98	5
518.05	3.1623
304.57	4.4721
89.308	7.6158
380.62	10.296
671.39	13.038
863.58	14.866
893.34	16.492
776.47	17.088
523.04	16.643
195.92	15.133
160.08	13.601
438.07	12.369
603.12	12.083
658.15	12.53
598.86	13.601
499.22	14.318
440.11	13
457.13	12.649
491.38	10.296
456.04	8.544
8956.6	28.178
9093.2	28.018
8468.3	32.65
7265.3	40.804
5724.5	49.336
4226.1	53.339
3186.9	52.697
2975.2	45.177
3539.8	30.067
4535.1	11.402
5777	14.318
7109.7	36.401
8314.4	54.745
9138.8	67.007
9393.1	71.554
8983.2	68.118
7950.5	58.523
6492.4	47.011
4990.1	37.736
4089.9	35.355
4387.6	37.59
5523.1	41.617
6808.6	44.598
7856.4	47.634
8456.8	50.12
8470.9	50.961
7787.2	48.042
6395.8	42.426
4378.1	33.734
2120.2	32.016
1898.6	41.049
4103	53.46
6101.2	63.071
7347.9	65.069
7644.7	58.31
7019.9	44.102
5738.9	28
4386.8	23.259
3889.5	34.132
4561.5	44.272
5535	46.011
6133.6	38.897
6196.8	27.857
5868.2	29
5449.4	45
5179	63.569
4986	74.277
4611.3	73.756
3864.1	62.769
2843.2	40.719
2344.5	20.809
3151.7	34.438
4448.7	60.415
5409.6	80.056
5656.6	88.645
5093.3	85.703
3832.8	70.114
2239.8	48.918
1418.9	26.683
2403.9	24.352
3432.2	37.336
3819.8	45.804
3477.6	44.643
2520	34.176
1335.2	16.401
1165.4	4.4721
2156.1	22.627
2910.9	37.656
3119.5	43.382
2837.2	42.048
2389.8	32.894
2333	22.361
2858.1	18.439
3504.6	27.785
3842.7	37.696
3719.3	43.081
3124.3	43.382
2212.6	40.025
1218.1	37.483
579.87	38.897
859.12	44.922
1125.1	52.697
1065.3	57.07
713.8	57.983
264.31	56.045
430.38	51.884
779.94	47.434
915.03	44.777
848.71	42.048
853.11	41
1227.9	41.773
1806.8	43.566
2356.5	44.777
2724.2	47.17
2856.4	48.094
2753.6	48.166
2520.3	46.39
2242.1	43.829
1985.3	41.773
1773.1	40.224
1535	38.471
1211.2	36.62
806.5	34.713
419.11	30.414
419.33	25.495
731.3	19.105
981	13.038
1097.6	8.4853
1113.8	5.6569
1038.9	5
918.59	4.2426
762.98	4.1231
592.65	7
463.67	12.083
540.71	16.401
796.11	20.025
1068.9	20.616
1252.7	20
1280.3	21.095
1155.2	26.42
924.98	36.497
725.74	46.043
776.74	55.785
1022.8	61.741
1267.4	63.071
1383.4	61.131
1343.9	55.227
1183.6	48.508
1003.9	42.953
913.43	41.593
985.11	42.202
1114.5	43.046
1201.7	41.11
1187	36.056
1073.9	28.844
900.37	20.1
710.84	11.314
553.34	3.1623
435.16	4.4721
351.21	8.544
264.94	10
224.44	9.0554
244.81	7.2801
295.61	4.4721
318.7	3.6056
289.39	2.8284
197.2	1
75	2.2361
123.57	5.099
274.49	8.4853
396.35	12.369
478.14	16.155
522.93	18.028
549.73	18.028
572.06	18.439
592.2	17.263
607.19	15.264
597.61	13.601
542.37	12.083
446.72	12.083
322.59	11.402
189.24	11.402
103.94	11.045
125.87	10.296
193.77	9.8489
232.82	9.2195
7033	55.362
7330.7	49.041
7286	34.205
6934.6	23.601
6359.9	33.838
5726.3	50.774
5224.9	60.208
4962.1	58
4859.2	44.688
4876.7	29.12
5076.7	36.878
5615.2	60.415
6467.2	80.281
7416.2	89.14
8143.1	82.225
8424.9	62.586
8184.4	34.986
7539.7	16.125
6774.7	32.202
6226.8	48.384
6054.7	51.157
6129.6	39.812
6215.5	20.591
6215.7	19.235
6180	41.593
6136	57.315
5985.5	61.098
5532.2	49.578
4692.7	25.71
3697.3	4.4721
3409.7	36.069
4428.7	60.877
5920.6	73.246
7006.2	72.18
7230.6	56.303
6419.4	31.145
4701.3	4.4721
2537.6	25.318
1808.7	42.202
3591.7	46.861
5180.4	39.812
5893.1	22.204
5659.1	9.2195
4784.6	31.257
4001.5	51.196
4186.6	63.82
5116.8	67.742
5893.8	62.514
6025.1	50.961
5432.3	34.655
4420.8	16
3672.6	16.155
3854.4	37.643
4596.6	58.941
5129.8	76.381
5065.7	85.165
4350.8	82.28
3151.4	69.203
1791.5	49.366
987.02	32.985
1446.3	39.357
1973.3	55.009
2086.6	62.032
1819.6	56.921
1437.9	39.825
1428.4	19.105
1929.4	26.926
2553	50.774
3045.6	66.761
3266.9	70.774
3183.4	62.65
2796.3	46.53
2221.2	35.693
1776.8	45.177
1930	60.308
2528.5	69.181
3087.9	67.209
3297.7	58.078
3054.1	45.486
2371.9	38.949
1373	42.012
279.57	44.553
735.12	42.755
1403.2	36.139
1618.8	30.463
1366.6	34
791.96	43.186
583.24	51.788
1274.4	56.939
1919	61.612
2243.7	67.676
2200.4	74.148
1945.8	77.389
1864.6	75.286
2249.6	65.192
2844.1	48.26
3293.7	29.017
3399.7	11.045
3095.4	12.042
2456.5	21.84
1599.2	28.302
728.84	36.056
257.7	46.098
622.1	56.436
784.77	64.031
664.15	63.198
417.23	54.562
534.06	40.608
958.25	28.443
1302.7	31.385
1444.9	40
1342.4	44.181
1004.4	41.231
484.08	29.017
222.74	16.553
817.3	16.125
1348.5	26.926
1681.8	33.242
1761.6	32.757
1560.6	32.45
1113.3	43.012
521.28	61.008
455.28	79.931
1063.5	92.022
1567	95.901
1829.2	90.094
1832.1	78.237
1602.7	64.498
1315.6	53.74
1197.6	48.374
1364.7	43.6
1586.5	36.056
1680.4	26.077
1555.4	16.279
1234.7	14.318
782.39	19.723
326.1	23.022
217	21
413.3	13.454
476.34	7.2111
421.17	12.806
405.41	20.025
558.07	23.601
748.68	21.84
849.26	16.553
797.62	9.0554
602.49	7
333.95	10.296
312.08	13.038
604.02	11.662
856.72	9.434
984.63	11.705
950.62	17.493
783.16	21.633
501.87	23.022
182.33	21.633
200.39	17.72
474.65	13.038
664.33	11
735.23	10.63
706.84	10.05
572.93	9.0554
427.11	9.2195
388.03	13
498.41	16.279
611.42	18.439
5161.9	20.591
7067.7	7.2801
8562.8	7.6158
9327.4	20.125
9195	29.275
8179.9	36.125
6488.6	39.294
4616.9	39.85
3466.3	38.288
3914.9	37.336
5184.8	36.674
6338.4	37.736
7065.1	40.012
7328.7	42.438
7211.3	42.154
6827.2	41
6390.4	36.125
6176.8	29.069
6416.2	19.209
7039.8	11.18
7714.9	10.44
8074.2	14.142
7905	17.029
7153.9	17.029
5956.8	13.601
4571.4	11.402
3316.5	15.232
2500	22.361
2390.2	28.425
3037.6	32.14
4185.5	34.655
5512	35.128
6664	38.275
7280.9	41.761
7118.1	45.618
6095.9	47.76
4363.6	46.065
2502.9	40.804
2258.7	32.696
3747.8	25
4971.6	23.087
5297.1	29.155
4588.2	37.537
2974.1	44.181
950.48	48.27
2016.2	51.157
4223.8	53.263
5926.5	53.151
6857.3	53.814
6970	53.009
6375.6	50.606
5321.2	46.84
4107.7	42.72
3031.5	38.21
2330.9	35.171
2077.4	35.171
2167.1	38.184
2426.8	41.773
2723.8	46.065
2890.4	50.567
2824.3	51.923
2474.9	51.624
1877.7	47.539
1154.1	42.048
580.85	38.275
836.39	39.319
1417.7	44.777
1939.3	53.339
2366.2	60.828
2693	64.537
2907.1	67.007
2972.8	67.801
2882.5	69.642
2669.4	72.801
2431.3	76.662
2251	79.076
2142.6	80.156
2063	80
1911	77.337
1705.3	74.813
1533.1	69.893
1488.7	61.612
1548	49.93
1577.7	32.757
1471.2	12.53
1196.9	11.18
866.69	35.468
791.21	57.559
1133.7	76.551
1609	89.989
2078.7	97.494
2487.7	99.725
2835.8	95.635
3120.3	86.764
3276.2	72.125
3271.9	53.235
3067.9	32.311
2672.2	13.342
2127.2	20.518
1537.5	39.56
1042	56.356
788.86	68.007
756.63	74.303
750.8	75
659.66	72.007
524.14	67.417
499.7	60.407
638.66	54.918
814.29	49.041
925.27	45
948.09	42.379
915.62	39.294
894.81	37.643
922.87	35.128
1017.3	31.765
1146.2	28.302
1248.9	27.459
1308.9	32.016
1323.6	41.773
1285.9	52.01
1226.4	61.522
1142	69.029
1057.4	74.027
960.61	75.71
887.09	75.584
849.71	71.554
849	66.91
828.46	60.108
767.84	52.953
624.54	44.011
498.96	36.401
581.01	29.428
871.42	21.84
1175.7	17.029
1391.4	13.038
1432.9	11.18
1298.3	9.2195
990.52	8.4853
580.17	7.0711
169.92	7.2111
312.77	7.2801
578.08	8.0623
700.91	8.2462
655.15	8.0623
497.97	8.2462
337.73	8.0623
354.39	8.544
502.02	8.2462
593.38	8.4853
595.7	8.9443
512.69	10.05
381.28	12.166
254.83	13.892
177.08	16.643
193.49	17.117
299.83	17.464
455.22	16.643
617	14.036
733.92	11.18
751.2	7.8102
664.25	6.4031
492.91	7.6158
283.64	10.05
278.87	13.416
462.25	16.125
605.63	18.248
3469	22.847
5923.2	14.318
8123.5	9.8489
9615.7	16.279
10140	26.926
9529.7	36.346
7809.9	43.932
5199.1	46.84
2396.4	47.539
2792	43.863
5646.5	39.395
8064.9	35.128
9506.5	32.757
9797.2	34.986
8996	36.62
7422	38.118
5711.1	37.216
4842	34.176
5413	29.967
6628.7	25.495
7640.3	22.672
8089.6	22.136
7932.5	23.537
7247.7	24.759
6181.3	26.306
4884	26.401
3560.8	28.302
2709.5	32.016
3045.9	35.609
4263.2	40.792
5603.7	43.566
6631.1	46.325
7137.4	47.17
7022.5	46.69
6323.9	44.045
5187.5	40
3966.6	34.059
3231.4	28.636
3415.1	21.954
4062	16.763
4483.8	14.866
4352	17.263
3558.7	23.324
2177.7	31.575
572.88	41.11
1819.5	49.092
3717.2	56.859
5277.4	61.033
6286.1	62.626
6632.7	61.587
6328.6	58.31
5529.1	52.345
4444.8	44.911
3361	37
2529.1	29.833
2100.3	27.019
2009.8	32.65
2149.7	41.11
2465.2	50.09
2865.2	55.946
3175.2	58.694
3210.4	57.489
2867.2	54.231
2138.6	49.406
1233.3	47.434
1013.3	48.083
1885.8	52.431
2769.2	56.321
3316.4	60.308
3440.5	63.198
3156.3	63.891
2614.8	64.382
2063.1	65.437
1817.9	65.49
1977	67.201
2277.8	68.066
2496.3	70.178
2581	72.533
2560	73.79
2465.3	73.926
2322.8	71.169
2122	65.192
1846.7	55.444
1523.4	40.361
1201.6	22.091
985.55	7.8102
960.4	29.698
1104.7	54.009
1327.9	77.621
1586.3	96.773
1874.7	108.34
2166.4	112.29
2439.5	108.67
2672.8	96.426
2821.9	79
2867.4	56.586
2789.9	33.377
2589.2	21.213
2258.2	34.059
1853.2	51.313
1401.8	65.115
966.06	74.653
611.03	77
420.81	75.286
446.27	68.25
587.01	59.54
749.98	49.649
894.83	40.249
991.5	33.526
1014.6	30.017
962.95	28.636
874.13	27.785
828.27	27.203
872.44	25.08
970.06	22.472
1061	19.723
1108.3	19.105
1080.7	24.352
1017.7	35.228
945.2	47.676
897.44	61.911
888.39	74
953.37	83.487
1065.8	89.308
1193.5	90.089
1268.8	86.215
1215.9	76.538
1007.7	63.325
649.59	48.795
178.81	33.838
386.05	21.213
886.11	18.439
1267.9	22.023
1480.4	25.632
1473.5	27.203
1259	25.02
908.11	20.518
511.12	16.031
297.31	11.662
472.34	8.6023
640.52	7.2801
672.82	7
572.71	7.2801
388.29	8.6023
177.77	11.662
94.069	15.133
158.29	18.385
155.79	21
75.584	21.932
164.51	20.1
366.28	17.205
552.96	11.402
686.6	4.1231
743.86	4.1231
724.13	13.601
650.48	20.616
546.13	25
430.02	27.203
351.1	25
283.49	20.248
253.65	12.53
223.18	3.6056
204.57	6.3246
167.52	14.56
136.69	21.024
175.73	24.698
3327.8	34.828
5358.2	30.017
7593.2	26.42
9327	31.241
10153	43.417
9825.9	55.606
8268.2	64.125
5628.1	65.947
2201.6	58.694
1576.9	44.598
5143	25.456
8041.6	10.44
9850.4	25.71
10328	44.147
9438.9	58.052
7385.3	64.195
4753.6	62.426
3237.9	56.089
4910.4	46.4
7444.3	37.054
9350.4	33.106
10181	33.601
9824.5	34
8422.8	33.422
6287.2	29.428
3998.5	24.597
2764.7	21.024
3636.2	18.439
5030.8	16.125
5945.2	14.213
6204.8	16.643
5892.5	25
5226.6	35.903
4467.2	47.381
3848.4	54.452
3501.5	57.983
3439.5	57.974
3653.4	53.339
4055.5	47.676
4473.2	43.841
4702.4	42.579
4549.6	43.417
3981.2	43.966
3193.6	42.19
2821.6	37.054
3537.4	30.887
4856.3	28.32
6067	33.422
6771.6	44.922
6784	57.07
6107.5	67.179
4868.2	72.18
3377.4	71.113
2275.8	64.008
2441.4	49.254
3350.3	30.806
4110.1	12.207
4457.7	19.925
4359.3	40.311
3898.3	56.639
3207.5	67.742
2451	73.783
1774.5	74.733
1366.2	72.67
1298.6	70.456
1402.9	69.296
1516.5	70.257
1563.2	71.218
1639.5	71.568
1822	69.426
2104.3	65.069
2391.2	59.076
2559.3	53.852
2555.2	49.649
2388.6	49.679
2193.1	52.811
2094.8	59.203
2178.3	67.624
2323.3	75.027
2401.5	81.841
2318.3	83.169
2090.3	79.379
1810.7	67.956
1612.7	50.488
1547.9	29.155
1558.1	18.028
1553.2	38.949
1525.2	64.288
1590.2	86.833
1821.4	103.31
2148.4	110.94
2458.7	112
2679.9	105.04
2773.5	90.973
2768	72.498
2701.3	50.99
2583.9	28.844
2415.8	16.643
2174.9	29.732
1862	48.01
1496	62.008
1128	72.422
790.62	76.922
525.08	75.928
366.9	70.349
448.69	61.4
724.61	51.078
1041	41.761
1296	34.132
1426.1	29.275
1382.5	26.173
1198.4	25.179
910.49	24.597
652.62	23.707
584.06	22.361
691.92	20.809
811.53	21.19
900.63	25.318
992.26	36.878
1145.7	50.359
1346.6	65.513
1506.5	77.878
1559.5	87.132
1470.8	90.785
1244.4	89.811
909.08	83.361
554.69	72.007
242.07	59.481
157.7	45.277
274.03	33.377
380.06	25
500.5	22.136
670.77	22.361
860.01	23.345
995.63	22.361
1037.5	21
963.57	17
768.87	13.416
503.21	9.4868
260.02	6.3246
313.08	5.6569
521.24	5.3852
673.53	4.1231
716.89	4.1231
651.69	7.2111
510.13	11.705
327.81	17
161.99	21.213
157.28	22.627
263.5	22.361
376.43	18.788
497.55	12.53
626	5.099
746.01	3.1623
813	12.083
808.77	19.416
723.77	24.759
556.81	26.306
379.7	25.495
257.5	21.471
285.01	14.142
337.47	7.2111
323.29	4.4721
234.44	12.042
164.45	20.248
270.16	25.298
3082.5	26.926
4984.1	24.166
6976.9	20.591
8562.8	23.195
9386.3	36.235
9201.1	51.196
7869	64.382
5483.8	70.036
2330.6	67.779
1400.4	55.803
4769.3	36.222
7570.9	11.402
9326.5	16.155
9802.6	41.437
8982.2	60.208
7089.2	71.805
4714.7	74.733
3385.7	69.354
4779.9	59.808
7052.3	51.245
8868.2	46.861
9808.1	46.174
9750.1	46.325
8754.1	43.966
7011.5	39.395
4875.6	34
3128.4	28.443
3249.2	21.932
4742.4	15.033
6111.3	4.4721
6847.2	10.198
6831.6	27.459
6178.3	44.922
5121	59.237
3977.1	69.462
3068.5	72.835
2608.8	69.426
2654.9	63.008
3095.7	53.075
3779.1	45.398
4438	41.677
4816.7	39.56
4740.7	36.056
4254.2	30.067
3801.4	23.345
4116.6	23.195
5287.2	33.734
6608.3	46.648
7463.4	59.363
7491.3	68.184
6604.3	71.589
4940.1	68.6
2952.5	60.828
2000.6	49.729
3257.7	35.805
4711.6	24.083
5512.9	20.125
5523.1	28.231
4808	38.601
3623.1	49.739
2247.9	57.079
1022.8	62.65
391.56	64.413
685.08	65.115
926.3	64.815
1213.9	66.272
1698.6	69.527
2243.5	74.061
2640.9	77.156
2766.8	78.09
2590.5	75.133
2153.4	68.476
1594	60.133
1144.4	52.154
1131.5	45.486
1498.6	45.122
1919.2	50.488
2251.8	61.294
2450.2	72.897
2497.8	83.295
2418.1	88.6
2234.1	86.035
1984.5	75.69
1676.6	57.201
1307.6	35.171
851.74	27.659
478.6	46.39
864.54	71.281
1591.4	91.389
2305	103.48
2875.6	107.91
3197.8	104.85
3248.2	97.324
3041.7	85.147
2667.4	70.803
2234.9	53.666
1881.3	33.377
1632.3	18.439
1457.9	27.893
1282.7	48.877
1046.7	67.543
777.43	80.306
509.74	84.629
300.56	82.765
219.06	73.246
302.83	60.216
473.44	46.098
670.75	34.234
856.44	25.612
996.51	22.472
1075.8	22.204
1093.8	25
1076.1	28.636
1022.3	30.265
936.86	29.732
824.26	27.074
737.55	25.495
766.01	29.833
933.34	40.311
1153	53.235
1325.8	65.803
1369.5	76.026
1279.1	83.024
1068.2	87.464
795.34	86.977
518.03	82.855
343.65	74.027
293.9	63.246
252.23	49.204
195.06	34.828
258.04	22.804
475.61	18.439
708.36	21.401
892.87	24.759
985.85	26
966.73	23.022
856.6	18.358
669.45	13.416
440.32	8.2462
216.37	5.3852
128.06	5
254.23	5
382.27	4.2426
473.29	3.6056
507.24	6.0828
476.47	10.817
396.76	16
268.52	20.591
131.02	23.854
178.01	23.087
366.72	19.698
549.76	13.601
696.02	5.099
778.31	4.1231
775.5	14.142
709.06	21.84
578.15	26.476
414.54	27.019
238.1	24.698
126.53	19.235
158.67	11.402
229.07	3
277.51	5.831
316.95	12.369
353.28	18.439
398.66	22.472
1862.1	27.166
3484.4	30.463
5236.1	31.401
6540.8	33.242
7131.6	35.847
6978.6	38.601
6335.8	42.297
5728	47.011
5673.6	49.649
6161.1	48
6639.2	41.617
6648.4	29.614
6027.6	16.643
4874.7	22.472
3492.7	43.829
2272.8	66.219
1556.9	82.462
1299.6	90.554
1466	89.677
2447.7	79.931
4010.6	65.031
5655.6	50.22
6916.1	44.294
7431.8	48.042
6973.2	53.038
5522.2	51.039
3263.2	42.438
654.34	26.249
2354.3	4.4721
4719.2	17.692
6348.2	38.21
7010.7	54.12
6749.3	62.65
5841.4	64.382
4856.6	61.62
4577.8	55.109
5170.7	48.754
5965.8	42.953
6349.8	39.812
6071.6	38.897
5142.3	39.051
3799.1	40.522
2657.5	41.11
2847.1	39.812
4164.5	36.125
5577.8	31.401
6641.4	29.833
7175.6	34.482
7106.1	44.294
6442.2	54.562
5254.3	62.642
3703.4	66.098
2074.1	63.253
1293.4	54.231
2264.2	40.112
3387.5	21.932
4102.8	7.0711
4324.2	19.723
4065.1	36.878
3466.5	50.961
2691.1	61.814
1940.7	68.242
1376.3	72.069
1089	73.062
1013.3	71.554
1072.4	69.116
1285.3	66.121
1618.7	64.444
1963.9	64.777
2199.1	66.731
2273.6	68.447
2149.9	68.469
1877.8	66.038
1556	61.4
1373.9	58.181
1481.9	60.638
1808.6	68.007
2180.4	77.492
2480.6	84.646
2624.6	85.422
2591	80.006
2379.3	68.476
2010.9	53.235
1552.1	37.108
1079.7	28.862
765.19	36.125
817.18	53.009
1117.1	69.34
1479.9	84.119
1841.4	95.021
2198.5	98.843
2513.7	96.83
2735.3	89.051
2797.9	76.903
2685.2	62.008
2379	46.53
1946.6	34.059
1491.3	25.06
1194.9	21.84
1168	28.018
1290.3	41.231
1357	57.585
1282.5	72.622
1070.9	83.863
761.34	88.391
430.28	83.869
202.36	71.386
249.51	53.367
415.58	34.482
606.08	22.472
849.14	25.495
1111.7	32.202
1331.1	33.838
1442.7	30.414
1431.3	26.926
1284.8	31.828
1081.7	45.177
944.41	58.728
962.09	68.154
1085.7	70.831
1196.1	68.819
1189.7	65
1075.2	63.561
864.23	67.268
609.81	73.437
370.44	76.942
190.69	74.202
111.89	65.115
145.42	49.041
254.77	29.732
414.77	10
586.1	10.63
726.66	23.707
821.69	31.016
850.11	32.202
811.02	27.803
726.63	18.974
600.47	11.705
460.05	11.402
317.61	15.264
272.38	16.279
375.07	13.601
513.47	7.0711
618.22	2.2361
642.89	12.649
569.02	21.26
407.21	27.295
178.62	29.967
117.05	27.785
370.42	22.091
579.35	14.866
713.28	8.544
759.62	8.2462
718.98	12.649
601.66	16.763
457.69	17.692
323.11	17.088
257.17	17
274.24	15.811
311.05	14.866
343.42	12.649
348.23	8.544
324.69	7
289.66	9.2195
252.67	15.264
221.53	20.616
1566.4	2
2771.7	13.153
3999	28.844
5113.8	44.721
6042	57.009
6753.5	64.885
7204.1	65.215
7357.5	60.208
7181.7	50.99
6682.2	38.588
5911	25.612
4982	10.44
3994.4	7.0711
3014.5	26.249
2084.5	45.967
1320.9	63.569
1214	75.954
1880.6	82.462
2692.4	79.699
3368.2	71.784
3839.2	60.415
4123.6	51.624
4276	49.729
4294.8	53
4094.3	54.708
3609.5	51.245
2920.4	41.11
2538.9	25.495
3156	6.3246
4391.7	14.142
5502.2	33.242
6018.8	49.031
5712.2	60.308
4553.7	66.129
2774.6	67.268
1339.9	64.351
2666.1	58.694
4537.6	53.339
5872.8	48.104
6455.2	43.417
6311.2	36.797
5640.4	29.155
4771.9	26.926
4014.1	33.838
3561.9	44.011
3458.6	52.038
3717.5	52.202
4296.6	44.944
4997.5	36.056
5504.2	38.626
5511.5	54.129
4845.6	70.767
3503.5	79.31
1717.2	75.425
981.71	59.816
2706.5	34.525
4189.6	17
5003.1	38.053
5047.9	63.411
4401.9	77.795
3336.4	82.225
2349.2	74.33
2090.6	59.237
2478.5	44.102
2799.5	37.054
2743.2	42.45
2284.2	55.317
1560.6	70.605
747.69	84.865
167.03	97.637
663.53	103.02
1061	97.637
1267.4	81.006
1272	54.745
1081.4	32.894
727.32	44.553
547.6	72.111
1069.9	93.557
1784.8	101.53
2412.3	96.208
2777.5	80.05
2808.3	57.871
2501.3	36.401
1948.8	21.024
1354.3	16.971
1077.7	23.087
1313.9	39.115
1695.8	60.415
1990.2	83.487
2148.2	100.72
2189.7	108.63
2109.3	105
1894.2	91.444
1572.9	70.406
1245.2	48.549
1148.3	31.89
1335.5	26.173
1555.8	29.53
1603.9	33.377
1384.9	42.012
982.04	54.037
711.36	66.843
1002.5	76.551
1481.3	80.753
1787.3	78.772
1820.6	70.456
1570.8	59.203
1124	48
618.99	35.511
345.18	26.683
516.38	22.204
694.76	23.195
776.21	26
836.54	27.019
919.75	28.071
968.25	33.838
881.17	45.891
604.16	60.959
175.33	71.847
411.18	75.611
941.29	70.725
1332.2	59.169
1515.9	48.765
1447.1	52.154
1170.6	67.978
829.66	82.608
724.85	87.932
922.48	80.61
1136.6	62.097
1192	35.114
1074.2	9
840.46	22.023
608.02	40
480	46.325
432.14	40.719
343.69	26.173
215.06	5.831
330.02	13.601
615.5	29.12
864.93	36.235
1001.2	34.059
990.12	24.759
847.08	16.553
614.65	21.19
372.13	31.321
213.93	37.162
219.32	35.847
306.99	28.018
421.05	15.264
548.53	2
663.38	10.817
717.29	16.553
680.01	16.763
554.51	13.153
394.58	14.318
271.31	24.083
248.2	33.136
230.52	38.184
149.51	38.21
59.481	32.202
268.82	23.087
471.31	16.125
597.2	14.866
617.98	16.279
523.71	13.601
378.6	6.0828
696.23	14.866
560.35	13.342
2110.7	32.202
4243.6	51.352
6497.7	67.897
8444.9	75.313
9668.6	74.324
9948	64.351
9189.2	47
7543.6	27.459
5337.4	9.8489
2967.2	1
941.08	4.2426
1203.6	2
2306.8	16.763
3109.1	37.537
3821.4	59.54
4547.4	78.294
5142.3	91.066
5363.9	95.131
5020.3	91.049
4070.4	80.523
2637.5	66.212
999.45	51.624
1057	39.812
2588.7	32.28
3949.7	25.554
5093.3	19.647
6062.2	15
6828.8	12.042
7253.1	16.125
7147.9	24.331
6409.7	34.828
5044.1	47.424
3374.7	60.008
2497.1	70.661
3596.5	76.217
5277.7	75.928
6539.3	69.051
7033.6	57.801
6692.4	43.841
5683	31.828
4386.8	27.803
3566.7	33.015
3914	38.184
4939.4	40.311
5840.6	37.108
6233.6	31.064
6024.9	25.02
5273.1	24.739
4159	33.242
2904.5	44.011
1829.3	52.555
1352.1	56.727
1557.4	54.452
1941.7	47.707
2300.9	40.112
2645	39.962
2949.9	51.894
3118.6	66.483
3047	77.492
2693.3	80.281
2136.5	72.993
1670	56.754
1673.5	38.275
2046.3	39.013
2336.1	64.031
2296.3	92.309
1878.1	113.07
1197.3	122.48
681.69	118.31
1057.1	99.045
1571.2	68.066
1758.8	30.529
1505.7	10
849.74	46.043
257.11	74.404
1196.3	91.417
2119.3	95.341
2753.4	88.391
3000.9	72.277
2831.3	52.393
2330.6	34.886
1683.9	28.231
1253.9	37.59
1404.1	51.614
1817.3	65.123
2125.8	75.802
2218.2	83.193
2090.7	85.586
1816.8	81.609
1502.7	72.945
1278.8	62.801
1232.3	56.143
1284.9	54.342
1314.3	56.365
1217.7	59.548
979.27	59.682
659.66	57.489
434.33	55.036
560.4	53.451
797.39	55.471
922.51	59.076
931.6	61.522
913.39	62.769
1017	60.216
1232.4	54.037
1421.1	44.944
1461.3	32.202
1299.1	18
998.05	5
768.11	18.111
900.49	34
1216.9	46.615
1413.9	55.109
1360.6	60.208
1031.3	62.968
499.52	63.411
155.19	62.626
778.83	59.034
1255.9	54.12
1486.2	45.277
1447.9	35.609
1153	32.45
686.61	38.833
159.77	50.249
357	59.464
717.37	62.65
893.77	58.796
880.87	50.01
701.24	37.443
417.31	27.019
84.38	25.962
246.2	31.113
547.56	34.059
802.03	34.059
988.49	28.284
1079.8	21.541
1052.3	18.601
891.08	23.854
610.79	32.062
255.83	37.537
113.72	39.115
423.86	36.878
610.4	32.062
664.81	26.173
631.57	22.361
635.57	18.788
790.21	16.125
1014.4	11.045
1193.5	6.3246
1243.8	8
1125.8	15.652
871.66	23.087
549.13	27.785
360.76	31.401
518.28	31.89
741.87	30
851.14	26.87
822.05	24
668.55	21.26
463.41	19.105
330.65	17.029
452.91	13.038
649.33	6.7082
788.65	2.2361
1753	26.926
1320	40.224
3501.4	57.28
5960	71.197
8189.3	78.645
9888.9	79.202
10838	72.111
10900	60.108
10020	44.102
8285.5	26.907
5879.8	9.0554
3082.8	8.0623
628.19	22.472
2659.7	36.235
4816.2	48.765
6303.8	60.415
7029.4	70.838
7023.6	77.833
6423	81.835
5405.5	80.025
4154.9	74.095
2834.8	66.038
1644.1	57.07
1417.8	51.352
2578.6	48.332
4093.6	43.863
5558.3	37.108
6737.3	25.495
7444.4	16.492
7557.5	26.173
7030	44.204
5918.7	60.133
4381.8	68.877
2621.4	69.814
1024.1	63.6
1331.6	55.036
2680.8	50.16
3864.5	52.953
4792.3	57.697
5452.4	57.28
5809.2	49.98
5827.6	34.234
5491.1	13.601
4903.5	9.8489
4299.6	29.155
4030	41.617
4268.5	43.863
4756.7	36.346
5108.2	19.105
5077.5	4.1231
4605.5	26
3824.5	45.486
3010	58.694
2569.2	63.151
2652.1	61.555
2901.2	55.082
2979.2	48.836
2785	48
2421.8	52.402
2086.9	57.489
1958.7	61.4
2000.4	62.37
2008.6	58.669
1906.9	50.448
1750.5	40.608
1635.3	37.696
1609.8	53.235
1569.3	76.538
1410	98.082
1108.9	112.26
826.1	115.42
880.65	104.56
1164.9	79.712
1343.6	45
1255.3	9.2195
876.83	38.118
380.61	71.344
733.09	93.477
1444.1	103.04
2018.9	98.489
2329.5	81.609
2358.8	59.775
2193.5	40.522
1980.6	39.446
1899.6	53.666
1985	69.462
2105.6	78.746
2155.8	81.32
2158.4	79.057
2186.6	72.56
2274.6	64.498
2367.6	57.385
2336.5	51.43
2096.6	48.27
1644.8	47
1083.2	45.891
691.66	45.31
832.74	46.141
1110.6	48.6
1185.6	54.452
975.92	61.057
566.87	67.72
403.44	71
905.49	72.125
1394.2	70.725
1669.5	66.068
1655.6	60.539
1368.2	51.157
876.32	37.855
360.69	22.472
527.87	11.402
982.3	23.431
1272.8	40.608
1332.5	55.362
1164.6	63.388
815.48	65.368
379.56	61.074
146.86	53.488
520.69	44.407
808.12	39.013
964.75	35.355
963.6	33.526
844.18	30.414
641.66	26.077
398.5	23.707
244.05	30.871
326.04	41.4
463.92	52.479
541.33	59.034
521.66	60.033
418.72	55.036
305.22	44.922
358.89	34.54
550.73	29.833
747.66	31.78
886.88	35.847
931.59	38.484
869.91	37.336
709.26	32.249
479.3	28.071
235.36	28.302
187.04	32.696
376.24	37.696
537.2	38.601
624.73	36.401
655.41	30.067
663.16	22.361
705.25	12.806
791.01	3.6056
884.72	4.4721
923.7	9.2195
871.22	12.166
723.73	14.213
484.49	14.866
196.6	14.866
97.637	17.493
331.63	20.396
472.38	25.612
510.62	30.017
439.45	33.287
284.86	33.615
123.33	30.594
179.62	24.759
320.52	15.133
414.22	5
439.83	8.6023
161.21	31.048
2078.3	51.225
4102.3	73.335
5881.7	88.459
7371.9	91.984
8536.6	85.088
9299.4	69.462
9558.9	49.649
9189.7	30.232
8125.7	17
6409.4	11.18
4234.4	12.53
2114	20.396
2122.9	32.65
4040.3	47.074
5845.9	60.828
7175.3	71.568
7943.6	79.246
8129.8	82.928
7711	82.098
6670.1	78.102
5068.9	70.576
3216.1	60.374
2511.3	48.795
4181.7	36.249
6362.8	25.08
8074.1	15.652
8926.2	11.045
8783.2	18.028
7718.6	31.064
5969.9	44.944
3917.4	56.939
1971.6	64.281
508.66	63.906
318.06	57.315
760.55	45.177
1588.7	32.894
2940.2	29.069
4426.1	34.438
5647.4	41.437
6270.2	43.324
6110.1	38.601
5161.2	30.265
3642.6	22.847
2146.3	22.023
2239.9	27.857
3646.4	33.838
4904	34.886
5604.5	32.985
5672.2	29.732
5214.8	29.833
4414.2	35.735
3495.7	43.566
2672.8	52.202
2083.3	58.523
1775.5	62.008
1681.7	63.789
1684.5	63.325
1689	62.626
1591.1	62.769
1335.2	61
917.04	57.07
400.4	48.549
314.73	34.713
804.73	18.385
1167.9	21.095
1339.1	43.186
1284.9	66.219
1044.8	84.024
706.63	93.915
426.68	95
453.84	86.313
660.87	69.893
864.51	48.01
1049.6	25.612
1254.4	25.807
1483.4	46.174
1689.5	67.476
1816.4	81.786
1814.6	88.295
1684.4	83.815
1429.2	69.635
1084.9	48.754
732.31	34.713
490.84	46.53
505.09	70.725
660.37	90.907
796.25	102.18
872.47	102
927.57	92.049
984.46	77.897
1057.3	65.46
1122.3	61.033
1140.3	63.253
1087.7	63.781
951.02	60.033
735.33	50.16
483.85	42.485
253.24	46.043
282.93	57.454
471.53	68.622
620.8	72.062
693.02	69.123
696.57	60.415
654	51.4
626.13	46.755
653.12	46.098
711	44.283
759.96	37.054
745.95	22.361
676.39	6.7082
575.78	23.345
532.16	42.953
620.19	57.567
775.4	62.936
902.35	60.166
947.94	50.04
912.35	36.346
782.59	30.017
608.26	33.015
424.44	38.328
252.57	38.013
146.03	30.414
125.72	16.643
160.82	10.05
208.03	27.514
247.74	45.011
270.57	56.798
255.77	63.6
199.15	61.66
105.22	55.362
28.16	44.045
158.84	32.14
308.48	22.023
453.06	17.263
590	20.248
706.77	25.08
766.74	30.414
747.18	33.377
634.16	33.971
424.45	33
137.13	32.558
196.33	34.234
527.37	37.014
806.08	38.053
992.5	36.878
1074	30.806
1039	21.541
917.42	10.296
733.15	2.2361
547.77	11.18
387.18	16.971
295.53	19.925
256.44	20.1
240.75	18.385
220.48	18.868
192.21	21.932
153	25.298
105.48	28.636
91.214	30.48
140.25	31.016
207.02	30.61
257.29	27.295
274.53	22.204
253.33	16.031
217.42	13.153
812.74	64.444
1987.7	66.121
3432	67.624
4808	70.214
6083.7	76.322
7264.9	81.584
8275.5	83.096
8988.9	76.164
9231.3	59.942
8817.4	36.62
7639.2	11.402
5696.2	21.633
3151.5	44.922
1115.5	61.131
3431.9	71.176
6193.2	75.073
8339.4	76.551
9540.8	78.435
9616.4	80.156
8558.4	78.588
6539.5	72.422
3994.1	61.587
2222.3	45.706
3625.3	29.614
5858.6	17.889
7511.3	11.402
8282.4	13
8143.4	19.313
7244.4	31.906
5855.6	46.011
4295.8	57.706
2878.3	63.6
1857.7	62.817
1382.8	55.227
1459.5	44.643
1983	37.643
2777.2	37.363
3620.4	40.497
4298.5	42.19
4664.6	38.897
4623	33.287
4196.7	26.926
3458.3	20.396
2560.2	13.153
1762.7	4
1598	14.56
2234.8	29.833
3160.3	41.593
4074.7	47.011
4802.2	42.059
5235.9	32.696
5297.8	31.78
4964.3	51.923
4276.5	75.584
3356.2	93.295
2407.6	99.045
1738.3	90.874
1594	72.18
1727.1	52.402
1743.8	48.415
1486.9	59.666
987.07	68.505
413.24	63.789
595	43.658
1155.1	12.649
1534.4	28.018
1647.1	64.031
1487.2	91.526
1122	104.69
718.01	101.71
656.68	86.683
955.44	62.097
1204.1	38.471
1236.9	24.083
1043.7	23.345
719.03	26.926
654.29	36.878
1044.9	55.009
1508.7	74.847
1812.6	87.115
1865.5	86.585
1652.5	70.605
1217.1	41.11
643.15	8.0623
88.204	41.195
463.25	75.664
775.64	96.897
857.28	102.12
725	89.157
499.14	62.936
515.2	33.302
831.03	28.16
1125.5	48.042
1282.3	60.539
1243.5	59.414
1037.4	43.324
727.48	18.028
431.34	10.817
347.05	35.735
449	53.339
536.59	57.801
571.24	51.856
624.14	39.357
727.78	28.844
842.8	33.971
897.83	44.045
871.18	51.264
775.14	50.16
707.09	42.72
743.55	32.202
867.08	21.84
989.83	18.028
1043.8	20.125
1015.7	26.077
926.48	31.401
795.2	35.511
661	36.715
521.05	33.971
373.16	27.295
270.13	20.125
297.26	17.692
422.3	22.627
538.63	26.42
587.75	24.083
562.68	14.765
501.54	6.4031
442.37	22.627
441.06	41
460.02	56.613
449.47	65.054
399.53	65.46
350.74	58.31
398.32	47.885
522.4	34.713
644.9	23.259
694.22	14.036
665.74	5.6569
575.01	10.296
469.86	23.345
399.06	36.235
367.82	47.76
319.08	53.935
260.05	53.759
307.12	48.052
517.52	38.91
766.96	27.514
979.6	18.601
1096.5	15.524
1103	15.524
994.84	14.422
807.52	12.166
587.22	8.6023
405.06	5
322.52	1
296.53	5
278	13
221.1	21.587
150.86	29.732
99.202	35.693
82.861	38.897
58.249	37.483
26.401	31.623
91.831	23.195
193.37	13.892
277.35	3.6056
314.93	5.831
2919.6	61.62
4510.4	75.027
6214.8	87.784
7340	96.177
7571.2	99.765
6933.3	94.847
5934.2	82.565
5494.1	63.032
6125.6	40.012
7100.3	18.358
7500.6	18.111
6939.8	32.65
5652.4	42.297
4738.4	43.324
5608.5	40.224
7574.6	37.802
9248.3	46.228
9920.1	61.221
9371.1	75.286
7775.9	81.744
5541	79.612
3263.4	68.264
1721.1	50.99
1779.4	32.14
2557.5	28.231
3581.3	40.719
4952.5	53.235
6457.8	61.098
7657.8	61.074
8174	54.589
7837.6	43.081
6654.3	30.48
4855	17.889
2743.9	14.213
618.81	19.209
1326.5	26.249
3006.5	29.614
4412.8	28.32
5462.7	22.136
6010.9	12.042
5902.6	8.9443
5039.1	22.361
3539.2	36.235
1906.2	46.53
1793.9	49.659
2983	46.141
3636.5	37.656
3277.6	27.731
1901.1	26.173
868.64	36.139
3158	49.649
5471.4	61.008
7011.6	68.425
7394.2	70
6497.1	68.884
4501.8	62.801
1886.9	55.073
1370	45.277
3578.9	35.847
4992.9	28.636
5279.1	26
4532.6	27.659
3273.3	29.275
2677.7	29.833
3455.6	27.166
4402	28.601
4682.6	37
4152.8	51.894
3062.1	66.219
2112.8	78.873
2231.9	85.376
2825.4	85.866
2972.5	79.612
2472.3	67.365
1666.9	53.16
1675	40.706
2632.6	37.216
3425.1	42.638
3563.9	50.12
2963.3	53.009
1761.6	51.4
335.63	45.398
1236.5	41.037
2241.8	43.966
2606.4	54.083
2303	66.212
1537.3	73.348
1059.1	73.546
1659.3	65.856
2323.7	52.154
2483.5	32.802
2016.1	14.56
1053.5	18.439
440.86	32.14
1528.6	42.45
2386.2	46.043
2694.2	43.278
2390.4	37.054
1587.2	32.802
648.9	31.953
944.6	33.838
1728.5	33.106
2105.9	26.401
1970.7	14.866
1410.8	5.831
687.52	22.023
706.03	38.013
1239.4	50.249
1466.4	55.073
1273.1	53.085
760.66	44.272
644.19	34.482
1289.8	30.017
1876.7	32.45
2128.7	37.643
1967.2	38.328
1451.6	33.242
723.11	23.022
174.93	13.416
651.56	13.038
925.07	20.025
878.82	23.431
549.3	21.378
308.78	18.439
674.87	23.259
1054	35.847
1194.8	50.289
1065.6	59.135
715.74	62.008
274.85	57.315
306.13	47.539
618.94	33.941
774.26	23.022
790.02	18.601
789.38	22.361
896.89	25.08
1051.3	26.907
1110.8	31.257
988.8	37.443
686	45.541
300.96	50.931
352.63	52.612
707.05	49.244
957.55	41.4
1037.2	30.594
981.29	20.224
897.32	11.705
873.5	7.6158
892.13	4.4721
855.9	1
723	6.4031
539.21	13.153
456.43	18.682
583.4	21.26
726.1	20.591
742.32	18.028
601.2	17.088
357	21.19
131.59	28.018
271.18	32.311
403.69	34.205
396.34	31.016
234.41	26.249
93.771	22
332.89	21.633
554.19	22.804
4984.9	59.775
6978	64.938
8551.4	69.893
9241.7	76.551
8765.3	83.187
7091	86.683
4429.9	83.487
1520.6	73.682
2744.1	57.689
5587.1	43
7685.4	41.437
8852.9	53.413
9239.2	62.65
9308.6	63.135
9549.2	50.537
10050	26.077
10440	13.153
10243	44.283
9176.7	74.887
7290.9	94.847
4870.2	100.72
2388.4	89.499
356.56	63.891
1245.5	28.16
2279.4	12.806
3505.6	50.448
5304	78.435
7390.2	91.831
9183.9	90.554
10131	72.498
9874.5	45
8296.5	13.038
5603.4	23.324
2197.6	46.53
1341	59.237
4442.3	58.009
6607.7	45.011
7560.4	23.345
7266.7	9.2195
5925.3	28.792
3935.1	45.541
1820.7	53.009
795.42	51.039
1783.1	40.311
2300.3	25.06
2109.3	10
1411.2	1
1012.5	1
1861.3	7.2801
2985	24.042
3922.9	45.122
4535.8	66.731
4793.6	83.241
4642	90.67
4068.7	87.235
3085.5	72.111
1781.1	49.092
624.87	22.472
1518	7.6158
2741.7	29.155
3567.7	43.417
3882.5	48.166
3716.1	45.793
3298.9	38.897
3013.8	32.202
3154.3	28.792
3551.8	28.862
3831.6	32.202
3782.3	42.202
3364.7	57.28
2731	72.691
2153.6	85.446
1982.3	90.338
2214.8	85.094
2521.4	70.831
2701	48.26
2702.7	23.707
2568	19.925
2314.2	39
1976.2	54.672
1550.5	62.073
1107.6	63.253
849.38	63.071
1001	65.192
1338	70.711
1608.3	77.801
1696.9	80.156
1588.4	77.156
1326.2	66.098
982.13	51
660	32.894
500.5	17.029
552.96	15.62
682.7	25
783.05	32.45
835.48	37.014
876.42	37.59
925.12	36.056
998.1	33.061
1084.9	29.069
1184.2	24.187
1246.8	18.111
1268.9	11.402
1233.5	7.0711
1140.7	12.042
996	21.213
779.67	31.145
504.29	38.21
241.24	42.942
417.31	43.046
811.95	39.013
1179.4	30.463
1473.9	20.809
1642.7	16.155
1696.6	22.804
1647.5	31.385
1504.5	37.443
1305.9	39.051
1055.9	34.482
767.22	24.698
552.45	13.038
619.93	10
878.37	20.248
1119.5	32.757
1236.1	41.593
1194.1	47.011
1001.6	49.729
725.12	50.22
493.41	49.092
448.77	45.453
523.34	39.56
543.06	30.806
467	21.095
368.01	15.652
419.11	20.881
568.96	31.385
670.76	42.438
656.91	49.163
515.61	52.326
295.05	51.624
80.05	47.043
189.5	40.804
270.33	33.526
240.02	26.571
222.32	20.809
443.04	16.031
756.32	12.649
1031.4	12.53
1191.1	13.454
1177.1	15.652
1007.3	18.028
714.19	18.385
370.75	16.401
124.62	13.342
254.24	9.0554
357.02	5
349.48	7.2801
331.72	11
398.36	15.652
539.53	20.125
636.66	24.331
644.01	28.284
535.18	31.401
352.89	34.015
226.18	33.015
311.09	31.145
6967.8	72.801
8196.2	73.246
8742.1	71.701
8506.8	69.462
7478.4	66.611
5741.3	63.151
3452.4	58.189
850.51	53.6
1949.6	51.088
4563.3	51.624
6866	55.036
8684.2	59.203
9915	58.241
10525	51.865
10550	37.202
10078	16.031
9275.4	11.045
8297.4	39.051
7315.2	63.388
6370.1	80.062
5390.3	86.833
4212.1	80.505
2719.4	62.936
1240.2	41.304
2276.4	31.016
4639.9	47.539
6958.2	69.116
8820.2	81.933
9892.6	83.241
9988.8	71.218
9059.1	50
7241.3	24.207
4935.1	16.031
3010.4	35.777
3217.1	51.662
4780.4	57.628
6040.9	53.009
6516.8	41.11
6170	26.173
5157.4	22.023
3762.6	29.967
2303.1	37.947
1033.1	40.804
143.41	37.121
526.19	28.46
934.68	21.024
1288.2	20.881
1531.6	29.069
1552.6	38.419
1304.8	47.265
1156.1	54.589
1761.8	59.034
2840.5	61.66
3861	62.29
4525.4	58.241
4640.3	52.393
4190.5	42.521
3391.8	29.547
2806.2	16.279
3116.4	7.2111
4042.2	18.028
4889.6	31.623
5299	43.186
5174	50.567
4611.4	55
3851.3	56.462
3200.7	54.452
2881.8	50.537
2797.4	50.01
2664.3	52.154
2329.2	56.462
1792	62.241
1184.2	65.803
739.88	64.537
803.32	58.728
1156.5	47.539
1507.5	30.364
1787.5	9.2195
1950.3	15.033
1951.4	38.275
1715.9	58.694
1244.4	74.733
588.37	84.291
348.17	88.278
1047.9	86.533
1646.2	80.362
1987.1	72.09
2039.6	63.561
1812.6	53.451
1413.4	43.566
1054.6	33.377
998.6	24.207
1207.1	17.263
1403.1	14.318
1480.4	15.232
1402.8	18.868
1250.4	25.08
1142.7	30.676
1170.3	36.069
1320.1	38.897
1478.8	37.656
1571.8	31.241
1540.4	20.616
1372.1	9.2195
1079.7	12.649
712.09	25.06
372.2	36.359
366.99	43.105
616.83	44.272
846.27	42.012
1029.4	35.805
1207.8	29.967
1394.8	25.495
1565.5	24.597
1649	26.833
1588.6	30.676
1364.6	33.136
991.92	34.713
525.98	31.906
58	25.239
353.51	15.033
624.8	4.1231
747.48	14.866
721.98	29.682
624.52	43.012
529.05	52.479
458.02	57.706
407.41	58.215
339.95	54.037
375.21	47.127
559.64	37.643
781.01	25.612
948.23	13.342
984.44	4.1231
878.57	16.031
632.91	29.547
319.03	41.4
66.219	49.366
293.49	53.488
450.52	53.814
484.84	50
433.04	43.417
429.88	36.235
540.08	29
684.76	23.324
773.96	19.313
776.82	17.029
719.41	13.928
651.43	11.314
653.88	8.0623
719.54	6.7082
755.51	5.831
728.54	6.3246
626.26	7.0711
482.31	9
347.86	10.44
271.92	11.18
223.06	11.662
156.58	13.416
111.31	18.358
190.32	26.173
294.86	34
369.09	40.112
362.85	42.72
267.26	41.037
99.69	35.171
7690.4	51.74
8741.1	55.471
8965.6	60.877
8316.1	66.098
6914	69.203
4951.6	69.857
2681.7	68.359
662.81	64.9
2308.8	60.902
4486	56.223
6420.3	51.546
8003.3	48.27
9173.1	42.485
9887.6	35
10162	24.698
10055	10
9674.4	14.213
9078.3	33
8293	52.802
7258.5	67.052
5904.3	75.273
4192.3	75.472
2223.6	70.406
1147.5	64.008
3022.3	61.27
5208.4	65.765
7091.3	74.518
8438.8	80.399
9118.3	80.212
9063.6	72.567
8298.5	58.83
6939.7	43.186
5239	34.482
3716.6	37.014
3273	46.043
4153.7	50.931
5307.9	50.09
6094.9	44.407
6255.3	34.928
5748.3	24.413
4678.6	18
3220.1	15.811
1617.9	16.031
412.99	14.318
1325.9	14.318
2128.2	18.788
2448.9	26.627
2271.9	34.059
1668.6	41.231
821.9	47.265
745.07	52.953
1781.9	58.181
2822.2	63.702
3663.8	66.129
4216.2	65.123
4455.9	59.059
4412	47.434
4191	31.257
3947.4	12.53
3842.6	8.2462
3940.6	25.554
4160.9	40.012
4342.4	49.659
4369.9	53.151
4198.9	52.202
3846.3	49.092
3345.3	44.407
2788.4	43.681
2242.1	47.011
1769.6	53.009
1440.5	59.203
1319.7	63.891
1411.8	64.281
1626.6	62.65
1864.7	55
2017.6	43.738
2064.6	28.16
1967.3	9.2195
1749.7	11.402
1439.7	33.734
1093.2	53.907
777.08	71.169
591.57	84.345
586.17	91.439
695.02	91.706
832.71	87.098
961.93	76.381
1093.9	62.586
1203	48.104
1264.2	34.132
1278.4	24.739
1230.1	20.125
1159.2	19.925
1122.4	22.672
1200.8	25.962
1371.8	29.155
1580	31.765
1759.2	33.601
1862	32.757
1870.6	29.12
1781.7	24.042
1629.7	17.263
1415.8	12.042
1173.1	12.369
911.01	17
648.66	23.022
412.84	28.653
331.07	33.422
489.87	35.44
746.47	35.228
1002.8	30.887
1221.7	23.431
1372.1	13.892
1440.9	6.7082
1401.7	14.142
1273.2	24.083
1062.9	30.414
797.17	32.65
508.4	31.048
224.51	25.495
48.374	17.692
247.1	9
410.11	9
533.41	18.439
620.67	28.636
681.58	38.639
704.55	48.549
697.69	56.859
661.82	60.828
605.44	58.941
560.02	51.74
530.6	38.484
516.54	21.024
508.84	5
486.68	21.378
429.24	38.639
358.02	50.804
265.52	58.138
180.36	58
171.06	53.226
256.96	43.278
381	33.242
507.94	24.515
614.69	20.224
687.3	21
723.83	22.804
710.62	22.672
646.89	20.616
563.65	16.031
444.82	10.77
333.66	5.3852
267.94	6.0828
296.28	11
378.16	13.928
451.81	14.142
502.8	13
505.63	8.0623
470.11	5.6569
407.14	11.18
325.13	19.209
223.58	27.295
136.42	32.14
65.115	35.735
67.978	36.125
100.65	34.438
121.28	30.15
7506.3	65
7357.4	67.052
6759.1	65.008
5862.3	61.984
4806.7	63.246
3703.2	70.711
2552.3	79.196
1302.4	85.088
722.66	83
2394.2	73.348
4497.2	56.851
6690.4	37.363
8709.3	19
10319	8.2462
11321	7.8102
11603	5.3852
11174	8.4853
10141	23.022
8662.1	39.319
6951.7	54.129
5176.5	65.299
3486.9	73.007
2085.8	77.389
1801.2	80.281
3002.4	85.088
4624.9	90.521
6192.5	92.785
7477.2	91.005
8294.9	83.006
8522.2	70.576
8164.4	56.613
7304.9	45.88
6174.2	40.162
5120.4	39.115
4531.6	38.079
4530.4	34.928
4821.3	30.529
5018.4	26.019
4915.4	21.954
4493.7	20.591
3794.3	21.095
2939.6	22.804
2055.3	24.352
1282.5	25.318
946.94	22.825
1263.5	19.209
1724.8	18.358
2015.1	25.632
2013.8	37.216
1693.7	48.166
1296.6	56.462
1479.2	60.208
2365.1	61.392
3406.7	59.942
4249.8	57.315
4728.6	52.479
4782.2	44.911
4508.6	33.541
4147	17.804
4005.8	5.831
4218.7	21.401
4622.4	37.336
4910.8	48.508
4898.6	53.254
4542.9	53.263
3903.8	48.374
3143.5	45.188
2414.4	45.695
1844.1	50.329
1442.4	55.543
1190.5	60.133
1170.9	64.498
1469.7	66.129
1933.6	65.803
2346.7	60.216
2563.4	48.765
2530.8	31.257
2239.7	8.6023
1764.9	16.971
1208	41.761
690.06	62.801
356.91	79.057
336.93	86.954
461.07	88.459
625.28	84.119
852.91	75.073
1112.7	65.795
1313.9	56.036
1424	46.648
1412.4	40.249
1315.1	35.693
1182.1	32.65
1108.4	31.064
1136.5	29.069
1246.9	25
1389.3	21.19
1525.1	19.416
1629.5	20.025
1691.3	22.804
1712.1	25.456
1685.7	25.495
1601.6	25.554
1470.4	26.249
1284	27.313
1060.6	27.785
802.27	26.019
561.48	23.409
453.62	21.095
567.6	21.26
782.67	23.022
992.7	23.537
1148.3	20.881
1262.4	15
1316.7	8.0623
1320.3	10.63
1257.8	19.026
1118.5	25.612
919.31	27.893
665.48	27.514
379.68	23.022
102.88	19.026
168.07	15.62
360.45	14.866
515.89	17.029
620.44	23.77
706.26	33.242
771.62	43.324
816.75	51.478
815.36	54.644
762.69	53.235
669.32	45.011
550.04	32.696
428.44	17.029
332.79	1.4142
280.14	14.036
258.15	26.401
254.7	36.125
240.23	44.418
200.48	50.448
116.91	54.148
36.139	53.31
207.47	48.166
404.09	39.115
598.07	27.313
739.04	20.616
816.1	24.839
811.78	33.302
736.46	36.401
632.28	33.015
546.68	23.259
513.26	9.8995
518.11	7.6158
516.17	20
503.36	28.178
498.09	30
520.41	24.187
555.1	11.18
565.6	4.1231
535.61	20.616
433.76	33.601
264.4	41.304
74	42.72
106.23	37.483
227.68	28.636
295.74	20.248
283.52	17.889
8307.1	58.728
7774.1	64.498
6785.5	66.761
5609.5	64.281
4465.2	62.032
3411.2	63.388
2280.5	68.884
922.58	75.153
1095.7	79.398
3164.4	77.524
5411.7	68.731
7550.1	53.367
9327.2	33.838
10559	14.213
11140	4.2426
11074	12.207
10458	12.806
9418.4	12.369
8084	24.083
6561.6	43.566
4909.2	64.07
3164.5	81.394
1449.7	92.655
1163.6	95.525
2790.3	93.648
4464.6	90.604
5897.3	89.56
6973.3	91.831
7625.7	92.228
7827.7	88.193
7627.2	76.557
7096.9	59.439
6393.1	39.825
5699.3	21.213
5188.4	13.153
4931.3	15
4831.8	17.72
4705.5	20.396
4400.1	30.265
3861.7	41.437
3126.7	50.606
2288.7	53.413
1469.9	47.802
783.3	35.014
402.38	20
491.23	19.105
723.83	33.941
920.38	46.141
1012.1	51.971
932.36	50.488
657.59	45.31
560.98	38.949
1235.8	36.62
2233.5	38.184
3269.8	39.357
4193.5	37
4870.3	31.623
5236.7	28.284
5298.5	29.069
5131.5	32.249
4818.9	36.249
4482.4	38.288
4154.7	37.162
3831.8	35.511
3478.7	33.015
3098.8	32.062
2728.6	30.414
2466.7	28.443
2346	29.428
2322.8	32.388
2297	38.328
2198.9	43.382
2025.1	46.861
1813.5	47.707
1630.5	44.147
1530.2	38.639
1511.9	29.833
1524.7	21.095
1532.9	21.471
1504.8	32.696
1425.9	48.549
1294.5	62.129
1108	71.868
895.51	77.078
688.11	77.473
534.69	73.246
470.81	68.659
506.3	62.65
649.27	59.397
885.41	55.462
1175.6	50.04
1454.8	42.048
1667.1	32.45
1787.2	23
1800.9	14.213
1722.6	7.2801
1577.5	3.6056
1412.8	9.434
1277.2	18.358
1204.3	28.018
1205.4	35.228
1271.3	39
1348.8	38.328
1394.4	33.601
1344.4	25.06
1196.5	16.492
977.59	11.705
799	14.866
756.94	20
868.05	23.324
983.88	23.77
1018.7	23.409
978.72	21.024
935.99	18.028
981.05	14.866
1115.1	13.601
1233.7	14
1244.7	15
1118.4	16.155
848.91	17.029
503.85	20.224
185.3	26
209.31	31.89
353.62	36.715
375.47	39.459
322.85	40.608
410.64	39.357
659	38.21
932.41	37.59
1107.6	35.355
1154.7	32.573
1052.4	25.612
847.33	20.396
621.95	19.925
506.11	26.401
520.42	33.242
544.82	37.363
478	38.288
321.18	34.482
211.26	31.321
397.18	29.275
635.27	29.017
816.67	28.46
888.41	24.207
848.64	15.264
706.14	5.831
531.45	8.9443
370.1	19.105
295.08	26
299.71	27.459
303.27	24.187
260.74	18.358
206.9	15.62
174.18	18.974
221.16	23.087
284.07	26.077
325.19	25.08
334.08	25
317.04	27.514
273.88	31.623
242	34.928
207.42	34.886
193.98	28.284
194.76	18.601
187.83	6.4031
153.63	9.434
6131.4	45.255
5532.7	40.608
4847.7	37.014
4112.2	39.699
3352.1	47.202
2653.3	53.226
2213.4	56.294
2332.1	55
3026.6	53.759
4086.2	54.083
5322.7	54.378
6593	53.814
7753.7	49.396
8647.2	40.05
9154.5	28.653
9208.3	15.264
8821.5	5.099
8055.6	1
7027.8	3.1623
5851.3	14.422
4628.3	33.015
3381.4	56.824
2110.7	80.623
807.11	102.04
727.18	116.21
2202.3	121.33
3741.6	117.89
5232	106.79
6564.3	89.454
7614.9	72.201
8282.6	58.549
8486.8	49.041
8237.7	42.426
7577.9	34.886
6616.2	24.839
5502.5	19.209
4377	23.345
3380	32.45
2597	40.608
2102	44.272
1901.1	41.11
1889.1	33.377
1929.5	22.361
1868.9	10.198
1635.1	7.2801
1224	15.297
692.74	21.932
228.09	23.601
549.22	22.804
961.8	20.025
1248.7	20
1402.9	23.087
1517.8	29.411
1692.4	35.228
2016.7	40.224
2542.7	41.485
3251.5	42.048
4075.1	42.379
4897.9	42.438
5579.1	42.638
5980.7	41.785
5987	39
5565.4	33.242
4766.4	24.839
3711.6	14.422
2634.9	6.4031
1881.6	10.198
1770.7	16.031
2043.1	19.416
2282.8	19.723
2347.9	18.439
2273.4	17.692
2127.6	20.616
1936.3	25.08
1695.3	30.017
1426	34.132
1254.6	37.162
1349.2	40.792
1645.5	44.553
1926.5	48.508
2028.5	51.42
1886.5	54.203
1518.3	56.08
1005.2	58.249
468.61	59.414
111	59.506
335.6	59.464
508.1	56.939
686.73	53.852
1035.4	51
1471.4	47.539
1885.3	45.277
2142.7	41.773
2198.7	35.847
2033.8	28.071
1743.5	20.224
1465.9	13.038
1352.7	14.56
1412.8	22.204
1502.6	30.083
1511.8	35.355
1408.8	37.108
1234.4	36.056
1053.3	32.202
948.23	24.083
916.67	14.866
926.48	5.099
955.36	10.63
995.26	20.125
1028.4	27.166
1033.1	29.833
991.21	28.862
883.65	25.06
735.44	20.616
587.77	17.804
497.43	17
499.6	16.279
559.77	14.866
648.93	12.369
735.2	14.318
795.34	21.19
807.43	29
738.48	34.176
577.82	36.069
375.28	34
309.09	29.614
491.12	27.074
712.25	28
858.47	31.78
873.39	36.056
777.23	37.59
583.13	36.056
340.58	33.422
102.79	30.414
86.977	27.785
179.62	26.926
199.46	25.318
183.53	22.472
226.93	19.799
331.8	20
443.44	22.825
504.1	25.71
500.55	26.173
453.31	24.187
385.78	18.601
336.02	10.44
308.59	1
283.81	10.63
236.22	19.313
160.51	26.173
73.246	30.232
52.202	29.069
106.78	24.083
129.76	16.971
104.2	9.8489
40.361	14.318
67.417	25
173.22	33.242
279.72	38.833
354.15	40.012
389.72	36.892
402.75	29.155
368.6	19.313
316.63	10.198
242.77	7
161.12	12.369
1466.9	20.616
2303.3	4
3669.9	19.723
5005.3	34.54
5969.1	42.953
6289.9	41.037
5894.4	31.623
4978.8	17.117
4232.2	12.806
4658.5	28.601
6123.2	44.777
7673.6	54.009
8671.5	57.14
8841	52.326
8162.1	41.11
6833.5	25.942
5261.2	12.649
4000.5	19.313
3563	36.125
3785.3	50.329
4060.7	61.717
4090.3	69.635
3912.4	75.432
3671.3	80.808
3493.4	85.615
3370.1	91.269
3316.3	95.964
3510.2	99.318
4126.5	98.995
5125.1	94.795
6218	85.51
7099.4	73.348
7557	56.356
7498.3	36.497
6949.7	14.866
6036.9	7.0711
4982.4	25.612
4048.3	39.56
3419	47.76
3075.9	48.549
2844.1	42.297
2531.4	32.65
2085.5	21.587
1560.7	16.031
1085.7	17
858.04	18.028
898.31	13.601
987.02	6.4031
1014.2	10.05
1032.3	22.361
1123.9	31.401
1295.5	35.341
1455.2	32.016
1543.8	24.515
1670.6	19
2082.3	26.476
2909.5	40.012
3998.1	50.16
5125.3	53.263
6047.4	49.244
6567	38.833
6554.5	24.698
5972.6	13.928
4878.4	16.031
3456.1	22.204
2019.2	23.601
1409.9	18.974
2101.5	10
2891.2	9.434
3301.3	18.868
3265.9	28.46
2843.4	31.048
2155.9	28.32
1362.1	19.723
667.04	14.866
641.12	25.06
1138.9	41.725
1603.2	57.567
1913.3	67.683
2050.9	71.505
1984.9	68.949
1712.8	59.304
1267.2	46.098
736.42	36.715
375.23	38.013
654.2	48.26
1035	57.801
1279.5	61.847
1366.7	58.694
1333.9	48.374
1288.2	36.125
1321.9	28.601
1439.8	31.906
1576.8	38.949
1662	40.706
1640.6	36.125
1495.6	24.042
1240.6	9.0554
951.64	15.652
793.66	33.971
935.31	46.239
1241	52.469
1521.7	50
1686.1	40.853
1695.3	26.306
1551.6	9.8995
1293.4	7.2111
986.35	20.1
705.01	27.659
541.24	31.321
535.99	29.732
593.51	26.627
639.85	22.091
648.02	18.385
596	16.125
509.76	14.318
451.05	12.728
536.54	12.042
728.2	13.601
913.44	16.125
1015.2	18.974
984.22	22.204
810.34	25.179
526.39	26.926
266.75	27.803
385.37	27.019
658.49	25.942
837.92	25.08
880.11	27.203
790.49	32.14
597.85	36.674
378.3	41.34
240.6	42.72
253.43	41.195
296.01	36.77
278.17	30.61
211.14	22.561
125.67	15.133
71.309	9.2195
38.275	9.0554
68.359	13.038
202.27	17
363.89	18.868
518.93	19.026
618.77	17.029
625.63	14.036
541.01	11.314
372.65	11.402
152.31	13.416
79.398	15.524
238.53	17.804
324.18	19.105
315.33	18.788
233.09	18.028
110.49	17.029
106.83	16.279
180.06	18.111
207.18	21.401
155.31	27.019
100.96	32.016
223.38	34.785
380.23	35.44
506.28	31.241
550.52	24.083
503.71	14.213
362.89	7.0711
1923.3	22.023
2641.7	8.0623
4302.9	18.439
5743.8	32.65
6582.9	41.593
6599.5	41.11
5743.7	33.302
4159.9	20
2451.3	11.18
2717.7	25.71
4800.2	43.046
6830.5	55.462
8163.7	61.074
8566.6	57.974
7982.2	47.518
6567.8	30.414
4703.7	13.342
3145.9	20.616
3138.8	39.962
4342	56.886
5460.8	69.123
6018.3	75.286
5919.5	77.369
5263.6	77.233
4246.2	76.922
3209.2	79.404
2741.2	85.44
3247.8	92.914
4284.2	98.98
5308.8	101.18
6064	97.514
6402.3	86.331
6295.2	67.476
5813.4	42.19
5131.3	15.62
4525	13.892
4228.2	36.139
4253.7	51.624
4341	57.983
4232.1	55.145
3833.4	45.967
3210.4	34.132
2539.3	26.833
2081.1	25
1905.2	25.02
1790.5	19.105
1450.3	9.0554
808.78	7.6158
375.68	22.204
1312	33.838
2285.9	39.812
3010.9	37.537
3313	27.313
3158.3	11.705
2642.3	14.142
2202	32.016
2549.4	47.424
3644.6	54.672
4884.8	53.852
5890.8	44.553
6415.5	30.871
6374.9	17.464
5733.4	16.279
4570.7	25.318
3014.5	29.275
1268.6	28.302
544.41	20.591
2014	9.4868
3093.9	8.4853
3635.8	18.248
3611.6	26.401
3067.5	28.302
2164.6	25
1227.8	18.974
1113.6	19.849
1817.8	33.302
2417.8	49.204
2657.5	62.968
2518.5	72.028
2081.1	74.632
1517.1	70.803
1095.4	60.44
1046.4	48.021
1164.1	41.881
1175.1	44.204
985.94	51.624
678.5	55.973
587.32	56.036
917.29	48.765
1327.5	37.121
1628.7	26.42
1769.3	24.042
1735.4	27.893
1545	31.305
1255.2	30.414
925.92	23.77
692.01	12.042
722.51	2.2361
941.88	15.811
1151.9	26.476
1268.7	34.205
1288.9	36.878
1255.9	35.341
1263.4	31.016
1364.4	24.698
1510.3	16.279
1612.2	6.7082
1593.2	2
1433.4	11.18
1160.5	20.616
844.17	28.443
627.89	33.526
628.91	36.797
734.26	35.903
795.35	31.623
776.98	24.083
695.37	13.601
590.53	3.6056
532.35	10.198
511.95	20.396
494.68	27.019
445.25	29.547
348.53	28.018
228.99	21.541
93.52	14.765
81.615	13.038
205.6	20.1
321.08	27.295
404.4	32.65
456.18	33.941
454.07	32.249
427.56	31.623
396.05	32.558
381.7	35.014
388.49	37.947
378.74	36.878
333.95	33.106
284.88	25
306.14	13.928
428.92	5.099
563.97	9.434
655.28	16.643
663.11	21.024
586.71	22.472
449.53	22.136
301.47	19.235
206.35	18.439
194.56	18.028
203.81	18.439
160.82	17.889
74.813	17.493
48.847	16
144.37	14.765
187.11	14.422
160.43	15.133
80.156	17.464
84.291	20.248
222.04	24
341.74	26.926
390.08	29.069
384.88	31.064
315.23	30
264.92	27.857
308.03	24.042
395.07	18.358
432.91	14.318
2280.3	26.627
3638	32.202
5283.9	37.947
6351	40.162
6616.5	35.609
6064.6	25.318
4800.6	11.18
3096.1	6.0828
1746	20.1
2585.3	31.048
4409.5	37.443
6029	40.46
7116	42.048
7516.7	40.792
7173.9	38.118
6137.8	31.016
4592.1	18.868
3011.2	7.6158
2579.6	25.942
3768.5	48.083
5211	69.08
6179.7	83.024
6445.6	88.64
5995.6	86.279
5007.5	79.756
3944	75.273
3570.7	77.466
4269.8	86.052
5360	96.566
6235.9	102.55
6648.8	100.96
6563.2	90.25
6110.7	72.346
5487.1	50.01
4888.2	28.018
4406	21.633
4026.7	35
3680.9	49.497
3355	57.801
3087.7	59.506
2887.1	53.6
2689.6	43.932
2395.1	29.411
1951.2	15.133
1385.9	3.1623
829.18	11.045
497.8	17.889
442.22	21.401
380.15	20.616
625.24	18.248
1330.2	13.601
2152	8.6023
2846.9	2.2361
3169.2	4.1231
2992	10.63
2365.9	16.155
1890	22.204
2675.3	25.495
4264.6	28.636
5801.5	29.547
6829.6	27.295
7103.2	24.515
6521.9	19.209
5147.7	11.18
3221.2	5
1061.1	14.422
1055.2	25.962
2670.8	36.056
3648.5	41.4
3880.4	41.304
3432.5	35.468
2515.3	23.345
1498.7	8.4853
1143	14.213
1659.4	31.305
2130.1	46.098
2269	55.362
2129.9	57.315
1904.1	54.562
1790.2	47.676
1802.5	38.013
1780.3	31.145
1592.5	27.074
1240.9	27.074
871.9	28.284
788.37	27.659
1012.9	28.16
1223.3	28.231
1329.3	28.844
1379.7	28.284
1509.3	24.698
1743	18.974
1951	11.402
2020.2	9.8995
1853.1	14.213
1482.7	18.601
1010.4	19.105
734.29	18.028
953.94	16
1296.1	18.788
1496.8	26.926
1481.9	33.615
1297.9	38.118
1070.6	36.62
986.03	30.463
1105.9	20.396
1264.1	10
1316.4	6.3246
1203.9	12.042
946.19	15.811
594.4	18.111
270.14	20
308.02	25.08
512.93	31.623
620.01	35.468
601.79	34.438
495.96	28
410.1	15.264
451.25	2.2361
558.18	16.763
625.77	31.048
606.68	38.897
487.2	39.294
292.86	32.28
74.726	17.692
146.6	2
289.12	19.105
350.09	33.601
340.28	42.048
320.66	42.012
369.94	34.015
466.44	22.204
543.25	16.125
538.49	27.074
444.21	40.025
268	47.634
87.316	46.239
218.87	38.471
389.57	24.759
487.21	8.544
501.36	13.416
460.37	26.926
417.78	34.986
432.47	38.118
485.01	34.828
516.61	27.893
483.77	19.235
379.01	12.166
234.79	7.2111
142.14	5.3852
193.29	2.2361
266.54	5.831
275.54	14.142
227.18	21.932
163.22	28.844
174.4	34.015
250.05	34.482
304.11	31.906
306.2	27.166
265.28	21.84
175.41	18.358
98.29	17.692
69.029	17.889
62.968	19.105
66.708	18.439
124.4	19.235
2230.3	48.703
3735.8	46.098
4808	38.288
5297.2	25.495
5222.7	13.342
4639.1	5.6569
3562.9	9
2088.8	14.036
827.49	19.026
2233.5	27.074
4148.5	33.838
5732.3	39.051
6685.4	39.825
6830.6	35.057
6146	25.08
4756.6	11.18
2965.5	7.2801
1461.1	21.024
1958.1	33.015
3282.8	43.681
4266	53
4752.3	62.241
4766.7	70.235
4395.7	75.71
3744.4	77.104
2966.6	74.041
2414.8	71.113
2635.4	71.344
3559	78.873
4584.6	90
5323.3	98.372
5549.4	98.858
5222.7	88.233
4460.3	68.71
3536.6	44.385
2890	28.16
2810.3	39.115
3041.9	58.728
3128.7	70.214
2882.8	71.868
2379.5	62.626
1889.4	45.706
1774.8	25.495
2040	8
2311.1	14.318
2356.4	22.804
2131.9	24.698
1705.4	20.616
1251.7	14.318
1105.9	13.892
1421.4	18.358
1876.9	21.378
2197.7	18.682
2211.8	10.63
1826.7	3.1623
1016	18.028
235.44	31.385
1659.5	42.059
3171.5	47.011
4511.4	44.944
5459.8	35.777
5862.3	23.087
5655.7	7.8102
4904.4	8.0623
3767.7	20.881
2527.2	29.614
1610.1	34.205
1490.6	34
1789.2	30.15
1915.1	24.515
1728.4	17
1325.4	9.2195
869.92	3.6056
587.04	12.53
516.08	22.672
440.37	32.65
275.94	40.112
357.26	44.598
711.11	43.863
1031	39.395
1197.4	31.016
1169.1	19.647
966.2	10.05
674.27	10.817
444.94	16.643
442.55	20.248
543.52	20.224
572.44	18
540.09	16
537.33	17
619.36	20.1
751.36	22.136
836.74	21.633
840.62	17.029
779.87	10.63
674.06	10.198
549.39	19.026
416.99	27.857
279.96	34.655
229.96	38.328
373.92	36.401
559.23	32.016
693	25.08
742.58	20.248
710.62	20.616
691.39	23.409
766.79	25
919.72	24.042
1063.9	20.616
1108	16.492
1020	14.866
815.13	18.682
560.65	23.022
387.77	23.707
429.63	22.825
527.55	19.416
563.04	15.232
525.16	16.401
487.91	21
535.11	25.495
644.74	27.659
729.88	26
737.88	21.471
667.52	14.866
552.99	12
448.79	16.155
388.79	22.847
353.29	27.459
287.24	29.017
185.54	26.833
155.65	20
275.83	10.44
405.46	5
482.69	15.524
486.84	26.306
433.76	33.601
353.27	36.77
296.66	34.713
260.76	28.425
226.45	21.378
156.54	17.464
65.62	20.809
133.76	27.893
260.95	32.45
350.77	34.059
387.24	31.401
364.16	26.249
330.72	18.682
323.02	10
350.22	4.4721
383.3	8
388.21	14.318
334.22	20.248
249.47	24
185.19	26.926
193	27.295
249.24	26.019
301.76	23.409
329.19	20.809
350.19	20.518
369.55	20.591
387.07	21.378
383.32	21.587
377.47	21.26
377	19.647
423.42	19.698
2054.3	37.643
1811.6	29.069
1746.9	20.809
1750.1	15.033
1760.6	13.601
1819.6	15.133
1975.9	17.804
2256.7	18.358
2655.2	19.647
3105.4	20
3505.4	19.925
3760.3	19.416
3782.8	17.493
3545.8	14.142
3091.6	13
2528.8	18.028
2029.6	28.16
1767.3	38.079
1757.7	46.4
1851	50.774
1930.2	51.923
1956	52.038
1905.6	52.345
1733.7	53.852
1368.7	56.859
813.22	58.249
480.2	56.569
1178	55.606
2048	57.14
2767.3	63.071
3189.8	71.805
3247.5	79.63
2978.4	81.302
2506.6	76.059
2057.7	65.62
1836.9	53.413
1842	47.127
1887	50.596
1852	57.706
1758.1	60.926
1708.9	57.489
1754.8	47.381
1830.9	32.558
1870.4	15.232
1886.9	2
1962.7	12.369
2119.9	18.028
2274.4	17.804
2303.9	13.038
2176.8	4.2426
2007.7	6.4031
2008	14.036
2203	20.248
2373.3	23.087
2242.5	23.259
1665	24.042
785.32	25.554
1278.7	28.16
2850.2	30.463
4396.9	30.529
5592.9	29.069
6219	24.207
6178.3	19.416
5494.2	15
4357.2	13
3041.6	15
1958.4	18
1558.1	18.868
1670.8	19.235
1667.6	18.028
1350.1	15.811
841.52	13.454
599.02	11.045
922.14	10.63
1205.1	14
1199.6	20
915.63	26.571
531.9	32.558
598.6	35.468
993.99	34.54
1244	30.15
1215	21.095
910.56	10.817
488.08	2.2361
523.78	7.8102
974.58	13
1314.8	13.038
1411.5	8.9443
1268.4	2.2361
984.72	6.3246
770.58	14.213
809.76	18.788
944.88	20.025
955.41	16.643
778.2	9.8489
458.7	3.1623
280.13	9.0554
551.89	16.155
813.3	21.932
900.62	25.06
788.39	28.862
525.52	33.061
292.48	35.847
442.99	37.483
696.14	36.401
833.56	31.321
812.04	24.413
664.99	17.464
483.52	13.342
396.7	12.728
436.81	11.18
458.25	7.6158
381.7	6.0828
228.02	15.524
124.46	25.942
265.68	35.341
389.15	39.623
409.69	38.897
314.31	34.525
160.25	26.42
197.59	18.248
396.21	14.422
540.63	17
580.63	21.19
510.53	23.537
352.16	23.022
171.48	22.204
140.13	20.881
244.74	19
290.23	16.155
252.12	11.314
176.48	4.1231
187.96	4
287.09	12.207
361.01	20.248
356.91	25.71
278.22	28.425
164.51	29
173.05	28.32
300.55	28.018
398.45	27.586
422.94	29.069
367.61	31.145
245.66	32
98.6	32.016
50.606	30.083
143.56	25.632
180.77	19.416
150.96	12.042
108.98	3
115.31	7.0711
175.93	16.492
210.11	24.042
189.24	29.411
122.38	31.575
65.299	30.61
154.25	25.942
251.86	19.416
301.73	15.297
297.14	15.811
232.69	21.378
115.74	26.306
36.125	28.601
155.21	29.547
253.6	27.166
317.4	22.804
2336.3	33.015
1691.7	26.401
1364	18.788
1415.4	13.601
1738	14.318
2169.8	19.416
2580.4	23.537
2897.1	23.345
3053	21.024
3055.3	16.971
2946.5	15.524
2814.5	16.553
2738.4	17.263
2767.8	15.232
2890.9	15.811
3047.2	24.042
3149.8	36.892
3121.4	48.826
2910.4	56.886
2505.8	57.723
1955	50.804
1366.3	38.419
892.05	27.659
634.56	28.018
449.36	38.013
230.08	46.861
641.95	48.466
1411.4	43.29
2224.6	35.057
2889.8	34.713
3247.9	47.074
3201.4	64.07
2753.7	78.262
2001.6	86.023
1194.8	86.284
883.77	79.259
1260.7	69.462
1596.9	57.871
1635.8	49.193
1431.9	44.272
1221.3	39.825
1269.5	35.511
1487.8	28.32
1583.4	18.974
1426.2	9
1064	2.8284
833.51	8.2462
1118.2	11.662
1551.2	12.207
1770.8	10.198
1656.8	5.3852
1239	2.2361
733.38	7.8102
713.97	15.232
1093.1	21.024
1294.8	25.942
1268.3	29.833
1448.1	32.016
2306.9	31.78
3577.7	29.732
4858.8	26.683
5849.5	23.259
6333.8	21.19
6217.4	21.471
5507.9	22.804
4336.7	23.77
2915.8	23.324
1488.9	21.024
285.66	16.643
531.03	10.817
888.73	7.2111
817.42	8.0623
475.03	11.18
437.16	15.232
910.69	21.024
1320.3	26.683
1502.6	32.016
1437.3	35.057
1175.7	35.511
836.78	32.696
599.27	26.306
597.64	17.029
682.36	6.7082
694.11	2.8284
631.32	8.9443
572.09	13.038
570.47	12.806
601.05	10.198
601.14	6.4031
540.02	3.6056
431.98	6.3246
321.45	7.6158
252.02	7.0711
253.69	4.4721
318.95	4
442.95	8
589.12	12.53
709.48	17.088
752.39	20.881
680.96	23.854
505.8	27.166
242.4	29
88.006	29.12
352.07	27.459
547.49	25.554
623.35	24.042
570.22	23.854
419.44	25.962
243.76	26.077
236.99	22.825
379.15	15.811
479.14	5.3852
493.79	8.0623
432.17	19.416
334.86	29.155
268.81	35.511
252.17	37.216
243.8	36.125
205.3	35.128
180.01	33.838
236.91	34.205
343.76	33.615
420.72	32.558
420.73	26.907
343.26	20.224
196.35	11.18
78.645	6.0828
219.49	9.8489
366.46	14.036
448.39	15.62
448.25	14.036
372.11	11.662
248.93	14.213
121.49	18.111
93.145	23.601
154.74	27.166
187.21	30.48
178.31	31
145.01	30.48
118.53	30.265
111.04	30.017
100.28	29.967
84.593	29.155
86.006	28.601
127.14	27.731
173.67	26.019
195.82	22.472
185.07	17
144.14	10.05
113.07	3.1623
145	7.2111
205.08	15.524
245.46	22.136
244.75	26.249
210.29	27.659
166.74	25.962
159.08	21.401
187.22	15
214.41	11.314
208.97	13.038
157.89	17.804
74.108	22.804
35.468	27.514
140.63	29
225.28	30.676
289.02	30
2626.1	24.083
2180.3	6.3246
1909.4	8
1815.3	15.264
1870.2	18.439
2065.6	18.439
2330.1	21.378
2566.5	25.554
2696.2	29.614
2700.7	29
2652.5	23.77
2684.1	17.72
2881.7	16.643
3195.5	25.807
3478.7	35.114
3595.5	42
3481.3	43.658
3136.3	42.012
2623.5	38.419
2036.7	34.886
1482.2	31.623
1044.1	28.284
739.03	23.022
540.24	17
492.12	16.155
716.33	22.825
1124.3	30.364
1576.9	34
1998.6	31.048
2328.3	24.352
2515.1	24
2528.4	39.115
2363.5	60.415
2011.9	78.409
1524.8	91.285
991.05	96.519
683.02	92.005
929.42	80.654
1345.8	64.031
1655.4	44.822
1764.2	28
1675.5	14.866
1458.6	6.3246
1267.1	3
1268.4	0
1464.2	4.1231
1678.3	8.6023
1780.7	11.18
1736	10.63
1620.4	7.0711
1556.6	3
1634	7.8102
1753.1	16
1751.3	23.345
1522.1	29.155
1159.5	32.45
1257.1	34.205
2169	32.696
3382.4	28.653
4562.2	24.021
5494.7	17.889
6023.6	15
6073.4	16.279
5642.7	21.024
4811.4	26.077
3714.4	29.732
2528.8	30.265
1435.6	28.601
666.82	26.173
612.82	21.932
829.87	16.031
894.18	8.9443
806.86	7.0711
652.57	17.117
512.5	29
434.31	39.115
426.69	46.615
490.32	50
607.03	47.17
709.2	38.949
733.88	27.659
640.98	14.318
428.51	7.0711
132.38	14.56
219.91	20.248
509.65	22.804
699.55	20.125
742.01	14.318
633.95	8.6023
419.08	8.6023
279.16	12.083
473.25	13.342
738.65	11.402
921.33	8.2462
983.68	10.44
925.53	16.763
776.14	24.166
589.82	28.653
420.01	30
297.44	28.178
219.15	23.345
159.62	20.248
164.4	21.471
244.25	24.042
332.8	27.074
385.62	29.53
375.54	27.203
310.01	23.195
200.09	17.088
99.298	10.63
140.04	3.1623
237.92	3
318.61	8.6023
366.29	13.038
383.02	18.248
363.73	22.804
311.55	27.586
236.89	31.623
169.5	35.171
192.92	36.797
287.13	36.222
375.25	34.986
411.18	31.016
375.23	26.571
280.72	20.591
134.83	14.56
47.927	8.9443
191.89	2.8284
300.37	5.099
357.31	10.77
353.56	14.765
307.72	18.028
249.84	20.591
217.17	21.587
218.28	23.601
219.21	27.019
201.49	30.414
175.51	35.128
170.58	37.736
199.7	39
233.27	37.336
242.56	34.409
210.34	29.682
146.15	25
64.382	23.022
26.926	21.587
97.673	20.248
144.96	17.493
157.69	12.042
133.96	6.3246
84.9	10.05
33.106	19.105
56.886	26.683
112.25	31.623
151.53	31.89
170.58	27.659
163.23	19.925
128.82	10
78.006	3.6056
23.77	13.892
42.521	22.204
80.225	26.683
89.644	26.306
73.348	23.259
82.735	20.248
161	19.723
2821.6	30.806
2566.4	15
2548.6	2.8284
2706.7	9.4868
2898.4	17.464
2989.2	24.042
2912.8	30.232
2669	33.015
2314.7	32.45
1978.9	28.653
1838.9	21.213
2003.6	13.038
2352.9	11.402
2713.1	19.105
2964.5	28.844
3046.7	35.171
2966.6	38.118
2769.2	37.696
2515.5	34.059
2280.3	28.018
2083.2	21.024
1896	14.318
1670.1	10.63
1361.9	11.662
995.34	13.416
737.53	14.765
885.01	14.318
1330.2	14.866
1810	16.492
2213.6	19.235
2474.6	24.187
2563.7	32.249
2483.1	44.147
2243.8	59.034
1896.4	74.967
1504.1	86.816
1172.1	94.005
999.53	93.038
1016	84.404
1113.6	68.469
1180.7	46.957
1184.4	24.698
1130.6	11.18
1045	17.088
940.22	22.825
832.35	22.136
746.13	15.811
777.72	12.083
996.56	17.464
1348.3	23.259
1712.1	25.298
1976.4	21.024
2047.7	13.454
1863.4	19.209
1440.4	35.44
1081.1	49.092
1542.8	57.14
2648.1	58.258
3893	50.695
5022	35.468
5854.5	18.358
6257.9	3
6170.1	16.125
5605.2	26.926
4634.3	32.757
3413.6	37.336
2152.6	41.037
1181.6	45.011
1049.8	46.69
1409.7	44.011
1582.1	35.384
1438.3	22.804
1039.4	18.028
579.01	32.062
526.83	48.918
886.41	60.033
1164.2	64.07
1230.9	59.464
1099.9	48.083
843.85	32.45
608.77	17.088
586.31	10.817
715.07	17.464
796.79	21.633
742.08	21.095
559.15	16.971
285.44	10.05
26.019	6
288.14	9.2195
468.76	10.817
535.82	9.8489
485.15	6.3246
353.79	2.2361
252.45	6.3246
336.05	11.402
501.72	15.811
631.63	19
673.72	22.804
635.45	25.06
522.77	26.87
382.67	27.785
276.81	26.926
251.81	25.08
271.97	23.087
267.88	22.561
210.28	23.259
105.6	23.431
34.828	21.095
134.62	17.117
211.1	11.402
236.3	5
218.12	3.1623
203.49	9.434
244.52	14.036
314.7	18.974
361.01	22.672
350.41	26.833
276.28	30
171.24	34
163.03	35.511
283.09	37.014
401.52	36.359
449.33	33.541
420.22	28.16
313.93	22.023
159.18	13.928
52.202	5
185.13	3.1623
286.02	10.05
322.8	14.765
294.08	17.493
231.68	17.117
188.94	15.62
211.4	15.297
242.43	17.493
236.24	23.345
180.42	28.32
106.02	33.838
126.89	38.21
224.38	40.817
298.48	40.224
316.76	37.855
275.51	32.558
188.32	25.554
73.171	18.385
69.051	12.728
150.62	10.63
192.28	9.434
183.61	8
136.68	6.3246
78.746	10.817
73.498	19.105
111.89	26.907
141.45	31.321
147.19	32.016
142.64	28.32
141.48	21.095
144.63	11.314
139.18	9.434
115.43	17
79.158	23.77
45.706	26.306
48.549	23.601
45.618	18.028
11.662	9.434
64.07	10.44
2513.6	42.059
2618.8	15
3021.5	10.44
3376.6	30.806
3476.4	43.382
3280.4	46
2866	41.146
2442.6	30.414
2256	17.804
2364.9	13.038
2578.2	17.088
2685.4	19.723
2625.6	17.692
2466	12.728
2366.9	12.083
2449.3	19.698
2666	26.907
2864.8	29.732
2898.4	29.833
2702.3	25
2274.3	19.235
1671.7	16.155
1013.6	14.422
590.7	14.036
809.71	10
1196.6	4.4721
1446	8.0623
1534.3	15.524
1529.5	21.213
1586	22.847
1798.2	21.378
2107.9	19.925
2383.9	28.636
2492.8	44.147
2390	61.4
2097.7	76.158
1737.8	86.267
1546.4	88.814
1655.9	83.815
1911.2	72.18
2068.3	55.785
1998	36.139
1683.9	16.279
1193.3	3.1623
639.74	16.031
173.54	24.698
135.42	28.231
130.61	25.495
231.17	19.416
766.29	12.083
1413.8	12.083
1993.1	20.025
2332.3	26.87
2294.7	33.015
1865.1	37.643
1331.2	40.447
1717.4	40.817
3025.6	40.497
4495.4	36.401
5743.3	30.48
6539.2	20.396
6752.6	9
6355.2	8.2462
5426.4	19.925
4135.1	31.145
2722.8	39.56
1523.7	43.417
1093.9	43.6
1403.7	39.395
1614.2	30.414
1491.5	20.616
1087.5	12.207
548.48	18.868
370.31	32.388
792.02	44.777
1126.5	53.712
1264.6	58.464
1204.5	58.258
992.27	54
706.48	46.69
429.26	38.013
271.05	31.064
295.74	27.295
364.28	27.019
386.21	28.844
355.81	30.676
280.81	30.083
180.02	27.295
123.79	22.361
185.08	16.401
272.07	15
326.73	19.647
336.88	24.597
339.71	25
383.09	21.401
475.09	12.166
575.56	3.1623
634.11	16.031
627.44	28.636
547.44	36.056
410.85	38.053
249.33	33.121
131.5	21.954
130.11	7.2801
154.3	10.817
132.94	24.331
65.788	32.696
31.906	34.67
107.42	31.064
146.58	22.672
122.41	15.811
41.183	14.036
83.546	17
229.38	17.263
360.47	11.662
443.38	7.0711
466.5	18.788
425.68	33.015
348.31	45.177
272.16	52.479
249.33	53
274.88	47.707
285.57	36.249
253.07	22.561
185.33	9.434
91.411	3.1623
17.692	9
64.846	12.042
85.802	11.045
69.462	8.6023
79.31	5.099
147.17	3
220.74	5.099
264.78	11.18
267.24	20.616
222.3	30.364
141.99	38.079
78.313	43.139
109.46	44.643
160.8	41
176.05	34.205
141.78	24.698
75.286	18.385
56.648	15.232
128.55	15.524
189.02	17.029
206.4	16.125
176.01	15.264
107.79	12
26.077	11.18
91.214	10.63
166.48	13
209.04	17.117
206.79	20.809
160.2	23.409
101.14	24.042
73.661	23.324
120.33	20.881
163.86	21.19
177.14	22.472
157.16	23.345
87.864	23.324
22.361	20.248
112.45	12.649
220.06	5.099
306.94	7.8102
1641.3	42.012
1648.9	23.195
2517.6	12.166
3308.9	22
3637.3	31.89
3403	35.171
2703.7	32.985
1896.5	26.249
1731.8	15.264
2360.8	7.8102
2982.4	9.2195
3182.2	13.928
2910.2	14.213
2364.1	9.8489
2077.6	3.1623
2501.6	7.8102
3223.7	17.088
3731.4	26.077
3778.3	31.385
3326.9	33.015
2492.5	31.575
1535.7	26.476
1006.3	20.125
1314.1	11.662
1696.3	8.0623
1771.8	11.705
1575.9	18.682
1362.7	24
1498.6	26.926
1928.2	27.295
2337.1	25.612
2530.4	24.207
2467.5	28.601
2191	38.288
1816.6	51.865
1503.3	65.513
1387.5	75.505
1467.3	80.604
1625.4	79.202
1739.1	72.173
1743.1	59.076
1612.6	42.048
1353.8	24.515
1033.5	8.2462
788.04	10.77
745.41	20.616
807.63	25.495
802.83	25.495
750.74	21.19
876.2	14.318
1270.6	7.2111
1704.1	5.3852
1954.9	12.207
1886.1	21.471
1521.9	30.067
1326.3	38.275
2086	45.255
3423.9	48.384
4804.6	46.69
5917.2	39.825
6554.4	27.857
6604.8	11.402
6061.4	7.2801
5033.3	23.854
3715.5	39.013
2365.4	47.885
1354	50.606
1170.2	48.01
1445.6	39.115
1546.5	27.857
1358.5	17
969.72	13.342
554.1	19.925
455.87	27.514
688.93	36.069
891.04	43.324
1011.2	49.254
1073.9	52.697
1112.7	52.773
1109.8	48.374
1032.6	40.311
852.74	33.136
581.91	29.069
270.96	31.906
154.87	37.336
365.99	40
501.32	37.656
519.2	31.623
421.03	25
249.78	22.847
56.798	26.249
118.34	32.016
220.2	32.65
250.8	29.614
226.21	20.591
226.29	9.0554
311.45	9.2195
426.9	21.213
517.43	31.145
556.02	36.222
539.27	35.355
474.65	29.547
388.56	19.925
307.59	10.05
257.41	12.166
249.3	21.024
258.04	28.46
258.07	31.906
230.34	32.249
185.84	29.732
179	26
245.61	21.213
334.62	16
403.24	9.8995
422.8	2.8284
386.16	9.2195
308.59	20
237.02	31.016
239.08	41.617
307.41	47.539
365.03	48.836
378.65	46.011
332.79	37.643
243.12	26.683
141.09	14.213
86.925	2.2361
120.25	8.0623
138.71	14.422
114	16.125
45.343	14.56
60.539	8.9443
161.04	7.0711
242.35	14.56
288.88	24.083
284.61	31.064
243.5	36.674
170.07	39.115
85.907	37.443
41.11	34
80.324	29.069
110.15	22.804
119.81	18.385
104.89	17.889
90.211	20
105.95	20.616
136.62	20.248
165.92	17.029
183.66	14.036
181.47	13
160.15	16.031
118.41	19.925
69.57	22.672
64.078	23.087
125.6	21.84
192.66	19.416
240.51	18.248
260.36	18.601
246.36	20.025
199.88	21.633
120.6	21.932
27.019	21.024
83.678	18.358
175.24	13.038
248.78	7
295.97	3.1623
304.61	9.2195
693.54	40.706
1426.7	27.203
2457.4	20.224
3017.2	23.601
2954.7	28.16
2305.3	29.833
1229.9	26.571
208.93	20.224
1181.2	11.402
1933.8	2.2361
2153.2	6.0828
1818.8	10
1041.7	9.8489
332.85	7.2801
1182	5
2004.1	12.166
2452.7	20.518
2480.2	26.926
2194.1	30.414
1851.7	29.682
1726.1	25
1794.1	18.788
1768.5	13
1458	10
850	8.6023
204.29	8.544
789.73	11
1357.9	17.029
1574.5	24.187
1421.2	27.857
1168.9	28.018
1454	24.083
2262.5	20.591
3059.9	29.833
3554.7	47.17
3595.8	64.661
3180.1	77.827
2405.7	84.149
1476.8	82.462
697.69	71.589
630.52	55.543
887.29	37.108
966.36	18.439
1007.6	4
1273.2	6.3246
1682.6	11.18
1996.2	12.083
2051.7	12.53
1830.1	13.601
1451.1	13.892
1181.1	14.036
1182.1	13.892
1198.8	18.358
924.97	27.203
458.52	37
1232.3	43.278
2653	44.911
4158.2	42.45
5470	35.609
6360.7	26.42
6675.8	16.492
6369	8.0623
5511.2	2.2361
4266.7	10.63
2867.6	21.024
1585.6	31.145
843.07	40.162
957.84	45.255
1162.5	45.354
1098.8	41.437
814.92	34.986
466.51	29.12
280.22	26.926
328.38	29.069
315.16	31.765
190.76	34.015
308.23	35.735
640.31	38.833
949.08	42.802
1140.1	47.297
1169.1	48.508
1036.1	46.755
785.18	41.012
475.53	34.655
176.14	32.757
84.012	35.468
217.31	39.357
274.8	42.059
283.02	41.629
292.06	36.77
312.64	31.78
316.99	25.962
288.39	22.804
254.83	21
295.29	19.209
406	17.464
525.38	15.232
597.61	15.811
602.12	18.028
531.05	22.023
410.33	25
265.36	26.571
140.8	25
92.574	22
113.86	16.279
115.12	13
89.538	18.111
69.721	26.627
97.417	35.057
141.48	40
170.3	39.56
186.78	33.541
189.11	23.431
194.43	8.9443
215.82	7.2111
251.45	22.804
297.24	34.525
341.27	43.012
374.9	45.967
382.13	43.966
357.75	38.328
306.2	31.906
231.24	24.207
137.44	18.028
55.362	13
38.013	6.7082
65	2.2361
64.885	6.4031
31.765	11.402
47.539	14.318
115.1	14.213
183.09	10.817
232.05	6.4031
253.19	12.042
242.25	22.472
209.09	33.242
154.72	41.485
93.493	45.607
31.906	43.863
20.591	36.139
57	24.739
75.027	11.662
71.701	7.0711
52.697	17.692
21.932	25.962
36.797	28.862
84.599	26.173
124.66	17.464
151.75	5.3852
150.1	8.0623
127.03	20
87.693	30.232
38.949	35.847
27.313	36.878
68.447	33.971
105.42	28.284
137.71	21.024
161.68	13.038
181.01	6.0828
180.58	4.4721
155.88	7.2801
101.84	9.4868
35.847	12.083
109.04	14.765
223.16	17.464
325.4	20.809
2206.7	55.579
1984.9	42.544
1990.1	28.302
2046.6	16.492
1975.9	10.05
1715.6	12.53
1300.2	14.142
827.64	13.416
457.08	12.207
397.06	12.207
503.4	13.601
530.21	16.279
460.3	15.264
323.94	14.318
155.57	12.53
161.37	15.811
449.44	20.616
810.62	25.02
1178.5	25.495
1473.9	23.324
1618.5	19.416
1565.4	16.155
1300.9	17.029
868.49	20
388.76	22.023
416.57	19.313
827.8	13.038
1133.6	5.3852
1256.8	12.083
1195.2	21.26
981.62	26.833
674.2	26.019
445.86	20.396
717.58	14.142
1305.3	24.698
1976.8	43.966
2600.4	62.514
3056.8	76.609
3236.5	83.259
3069.3	80.623
2546.8	70.292
1730.1	53.16
755.38	32.894
286.14	13
1079.1	7.2111
1601.2	18.111
1764.1	21.932
1597	19
1239.9	10.817
936.14	9
883.86	22.847
868.49	37
591.49	47.17
143.39	53.151
1125.5	53.151
2390.9	47.854
3700.6	38.91
4850.5	27.731
5651.5	15.524
5990.8	5
5833.8	3
5241.4	8.0623
4347	11.18
3334.3	16.031
2406.6	22.804
1712.6	31.575
1292.9	40.804
1037.4	47.17
814.22	50.931
652.51	51.624
660.51	47.885
787.48	42.485
875.09	34.366
845.49	26.401
709.75	19.416
518.34	17.493
364.97	22.847
328.18	31.064
366.39	39.812
424.45	46.872
519.31	52.01
651.53	53
777.44	51.078
837.09	46.098
791.62	39.205
635.15	33.136
389.08	29.411
107.35	28.636
167.49	30.232
361.07	31.064
450.32	30.806
425.47	27.313
298.19	23.087
125.5	16.643
171.42	9.8489
365.38	4.2426
527.36	8.4853
633.75	15.033
683.56	22.847
681.73	28.425
634.06	32.558
543.87	32.894
426.65	29.411
302.32	24.331
236.48	19.313
275.49	23.345
349.51	32.062
386.4	40.361
369.8	44.147
298.14	43.012
203.74	36.125
127.66	24.739
136.75	10.198
207.24	5
295.48	18.028
394.8	27.074
496.64	32.202
577.55	33.242
604.73	31.906
568.23	33.242
460.44	34.234
302.95	34.713
123.98	33.015
60.877	28.178
193.6	21.213
267.44	13.892
277.82	12.042
229.53	15.297
151.54	16.401
83.006	15.033
96.462	9.434
149.8	1
195.43	11.402
235.58	21.378
279.61	30
310.71	34.482
316.57	36.346
286.7	35.693
223.89	33.121
137.44	28.284
79.057	22.472
104.02	16.553
144.84	10.817
148.35	11.18
116.78	17
56.009	21.26
13.928	22.825
73.682	19.235
110.92	12.166
125.17	3.6056
128.7	13.153
144.81	24.597
171.23	32.802
189.21	38.639
181.08	38.601
136.56	33.941
67.897	27.203
21.26	17.263
87.664	8.6023
135.83	2.2361
157.29	3.6056
163.78	5.099
196.92	7.2801
261.08	10.63
332.45	16.125
381.88	21.095
3049.2	47.127
2954.1	33.242
2943.5	21.19
3041.6	13.342
3134	12.166
3070	15.133
2765.8	17.692
2282.7	19.105
1805.5	18.601
1640.9	16.031
1818.1	12.806
2027.4	11.18
2026.3	12.166
1750.8	15.811
1316.1	18.358
1063.8	19.647
1358.3	18.788
1908.3	15.652
2384.8	11.045
2677.6	7.0711
2756.3	9.2195
2612.6	16.031
2269.8	23.854
1779.8	28.231
1304.8	29.833
1257.2	27.019
1735.1	19.026
2290.6	9.8489
2600.1	11.045
2511.5	21.471
1969.4	30.594
1041.2	32.558
472.82	27.459
1634.6	13.601
2784.4	7
3603.5	30.414
3957	54.672
3803.5	73.682
3203.5	86.585
2295.6	88.414
1264.6	81.394
312.39	65.795
452.25	44.721
907.09	23.259
1079.4	14.422
1035.9	23.77
879.8	30.083
711.05	30.083
582.79	25.298
545.28	21.401
643.65	27.785
814.87	39.623
964.69	50.12
1112.4	56.356
1451.7	55.082
2156.1	48.549
3150	37.216
4228.9	24.331
5165.7	13.038
5757.3	9.434
5860.3	15
5425	17.464
4512.2	18.788
3290	17.72
2020.1	21.401
1158.8	28.16
1203.8	36.056
1482.1	43.863
1444.7	48.26
1032.7	49.93
365.17	48.021
400.02	43.417
1030	37.855
1404.3	31.305
1448.5	26.401
1165	25.456
641.25	26.627
104.4	28.46
621.31	32.062
1071.7	34.886
1308	38.013
1330.1	41.195
1208.7	43.863
1057.5	46.325
968.25	48
921.14	47.434
848.82	44.944
718.01	40.522
612.28	35.228
646.05	29.155
772.89	23.431
852.78	19.026
828.01	15.556
704.97	12.042
615.23	9.4868
698.85	8.9443
883.39	11.402
1007.8	14.765
996.59	18.111
830.22	21.26
541	24.021
205.14	27.659
138.54	32.062
365.09	36.069
466.44	40.05
429.53	40.804
283.24	40.804
92.542	37.336
161.45	32.45
313.31	25.08
390.9	18.385
388.32	13
325.71	10
243.7	9.4868
175.33	10.817
105.76	12.042
26.926	14.866
148.12	17.029
321.4	19.235
474.52	22.204
571.83	24.739
585.1	27.203
498.26	28.302
325.39	28.443
125.16	28.636
165.85	26.401
329.56	22.825
418.17	17.029
408.59	9.4868
305.56	2
142.21	8.0623
72.918	15.652
229.97	22.023
342.53	25.71
383.28	26.683
358.28	26.401
300.56	24.698
250.79	21.378
243.31	18.248
245.8	16.125
221.06	13.038
164.2	10
91.214	6.4031
65	6.4031
103.74	9.0554
113.44	10.817
83.487	12.166
42.048	12.207
102.39	11.705
178.02	12.166
228.48	15.556
232.36	20
190.52	23.431
111.83	26.249
26.306	26.683
83.259	25.612
142	22.825
164	19.416
156.27	17
140.81	15.297
150.53	13.928
186.78	13.416
213.02	14.422
216.23	15.556
211.57	17
216.63	18.111
3509.7	52.326
3456.4	37.014
3302.8	22.136
3100	11.18
2878.3	12.806
2638.4	18.601
2365.7	22.204
2055.1	23.324
1741.9	22.136
1513.9	19.235
1456.3	16.279
1535.9	15.62
1604	16.155
1544.9	19.416
1318.7	23.022
1013.4	25.71
992.07	25.08
1478.5	22.472
2134.4	15
2682	6.0828
2954.8	8.2462
2878	19.723
2447.5	28.653
1781.3	34.059
1251.5	34.059
1482.6	29.428
2155.1	21.932
2689.9	18.788
2851.1	25.02
2572.6	33.422
1905.4	38.013
1097.5	35.468
1100	25.179
2028.1	13
2949.6	21.024
3575.3	42.45
3801.8	62.201
3613.9	76.538
3063.9	83.648
2261.6	82.219
1333.9	72.422
434.12	56.462
393.45	38.471
938.06	20.616
1222.8	6.0828
1243.9	6
1072.9	12.53
895.96	16.125
953.32	18.028
1223.6	19.235
1451.7	21.471
1482.6	26.306
1289.4	33.941
1100.6	40.447
1463.3	47.854
2369.9	50.606
3432.4	49.254
4396.7	42.521
5083.4	30.806
5380.5	15.264
5245	6.0828
4701.2	20.616
3850.1	33.838
2837.8	43.566
1887	48.26
1283.1	49.497
1211.4	47.381
1334.8	42.544
1302.2	36.235
1034.5	29.017
576.11	23.345
71.169	23.345
518.8	29.411
926.34	35.609
1130.2	38.949
1095.8	36.346
835.48	29.428
431.87	21.213
362.68	24.187
837.06	36.056
1276.6	50
1540.7	59.548
1573.4	63.325
1378.3	61.522
993.28	54.203
510.65	45.31
272.26	35.511
606.66	26.173
887.2	20.396
975.44	18.385
858.64	18.601
590.8	19.235
321.34	20.881
459.16	21.26
764.29	20.125
982.71	17.117
1050.8	15.133
959.25	13.928
747.81	14.213
470.89	14.56
214.44	16.553
165.8	20.881
264.5	28.636
292.48	35.355
232.8	42.19
115.26	45
27.295	44.777
136.06	41.195
203.81	33.838
210.62	25.06
171.09	16
114.77	9.2195
89.14	6.0828
94.34	8.544
97.509	13.342
110.05	18.028
186.82	21.401
299.36	22.472
410.44	23.195
485.73	23
505.15	24.083
466.95	27.893
374.77	32.249
248.36	34.059
140.26	33.526
139.09	28.284
216.45	19.416
272.12	8.9443
289.81	1.4142
270.34	9.2195
226.29	15
191.03	17.493
195.13	16.763
244.18	16.279
298.2	18.028
332.78	21.378
328.87	23.854
284.01	24.187
200.64	23
94.032	18.601
44.385	14.56
139.84	10.817
218.08	8.2462
252.62	6.4031
242.33	4.1231
193.19	2
124.1	1
76.551	1
96.177	2.2361
133.69	6
138.51	13.038
113.44	20.125
59.203	27.074
25.962	31.623
83.546	33.106
125.42	31.064
145	24.698
135.42	15.811
111.66	8.0623
122.2	6.0828
181.1	12.166
254.91	15.652
308.97	16.401
340.32	14.56
336.03	11.045
302.65	9.2195
3871.6	64.031
3726.5	46.519
3489.5	24.083
3123.9	8.4853
2631	21.213
2062.2	34.886
1502.7	41.049
1034.7	39.051
733.28	30.529
663.88	18.682
845.25	11.18
1156.2	15.811
1441	22.204
1569.5	25
1463	24.187
1167.2	19.925
1019.7	17.464
1498	16.279
2308.8	16.031
3045.4	15.033
3493.5	12.166
3533.5	12.042
3166.8	15.033
2555	19.647
2095.4	21.932
2256.9	21
2836.8	20.809
3315.8	25.08
3401.1	32.28
3009.3	39.357
2233.9	41.785
1455.8	38.275
1561	29.732
2427.1	23.601
3221.9	33.422
3645.3	51.01
3624.3	69.029
3220.6	81.32
2580.5	85.726
1915	82.134
1425.6	70.406
1162.6	54.406
978.55	35.384
794.81	17.493
825.53	7.2111
1176.6	10.05
1576.3	13.038
1804.3	13.342
1759.6	13.153
1458.8	18.111
1061.4	25.632
987.4	34.655
1375.5	41.231
1849.1	46.819
2226.4	50.22
2569.5	50
3015.6	47.202
3627.5	41.761
4296.8	32.696
4820.3	21.541
5018.2	12.207
4774.5	18.028
4084.7	31.321
3034.2	43.6
1790.5	52.154
605.6	55.462
668.97	52.802
1351.7	46.325
1665.1	37.121
1601.5	27.659
1265.7	25.179
867.94	29.428
729.38	34.928
891.2	36.069
1014.5	33.106
947.21	25.179
705.79	15
428.6	12.042
439.84	22.672
683.49	34.67
875.27	44.721
948.36	50.695
933.95	52.631
891.6	51.478
861.11	48.374
803.32	44.147
665.2	40.817
439.76	38.419
255.34	35.44
439.81	31.401
721.75	26.401
910.15	20.616
960.75	14.318
886.1	8.6023
777.01	3
763.81	1
883.23	5.831
1012	13
1037.2	19.647
918.82	26.907
675.21	32.558
353.91	36.056
41.146	37.537
246.5	36.401
401.98	34.234
423.21	30.414
328.98	28.32
165.39	27.514
54.083	26.173
183	25
262.84	25
260.68	23.77
222.09	24.187
233.73	23.195
315.78	20.616
390.81	16.553
425.62	11.18
421.52	8.0623
408.72	13.454
432.68	19.723
469.82	25.318
476.23	27.659
415.62	27.203
275.07	24.413
93.005	19.925
124.42	17.117
285.55	14
375.83	12.369
369.29	10
273.08	7.0711
111.4	5.3852
77.006	9.2195
238.47	15.297
341.59	18.682
357.97	20
302.37	19.416
206.65	17.464
156.05	18.028
200.73	20.396
245.8	23.022
232.4	23.77
169.58	21.932
128.1	17.72
210.71	11.705
313.79	5.099
359.67	6.0828
332	11.662
233.4	14.036
89.006	14.866
103.08	13.892
238.8	14.422
325.08	17.029
341	21.633
284.86	25.495
176.85	27.203
55	26.249
78.339	23.087
160.18	18.601
197.5	12.042
190.54	8.0623
165.44	8.6023
133.69	11.18
114.07	14.56
102.88	16.553
120.83	16.125
189.01	14.036
3523.5	45.453
2999.5	35.847
2556.1	25.495
2241.7	13.038
2037.4	5
1946.5	13.038
1938.8	22.472
1961.3	29.732
1926.3	33.541
1766.4	32.696
1477.6	29.53
1106.9	25
743.85	21.541
471.35	21.095
421.44	20.396
697.07	18.358
1169.6	14.866
1724.1	8.2462
2249.4	1.4142
2652.7	6.7082
2885.4	12.166
2976.7	12.806
3020.2	11.662
3104.9	9.434
3232.2	12.042
3311.6	20.616
3234.4	28.862
2952	35.735
2515.3	38.601
2080.7	38.053
1843	34.713
1885.7	30.594
2073.9	31.048
2258.2	38.21
2399.3	50.01
2503.2	62.968
2555.3	72.835
2503.2	78.262
2282	78.39
1891.5	73.027
1383.9	62.434
888.8	48.877
574.22	33.242
495.36	19.105
443.35	11.045
405.53	12.083
614.27	13.601
957.62	11.045
1193.8	4.4721
1201.9	10.05
989.41	23.087
885.4	35.777
1317.1	48.27
1969	56.045
2449.8	59.682
2549.3	57.983
2223.7	51.865
1737.2	40.608
1907	26.926
2937.2	11.314
4098.3	6.4031
4898.2	22.136
5090.7	36.222
4576.8	47.011
3436.6	53.413
1891	56.321
648.99	53.151
1664.5	46.098
2737.4	35.468
3228.3	24.759
3080.9	18.868
2395.5	21.19
1415.1	27.731
687.84	31.145
1101.7	30.414
1605	23.087
1710.7	12.166
1393.3	4.1231
766.09	18.028
15.811	32.573
686.9	43.932
1165.5	50.567
1355.8	52.01
1316.2	49.396
1216.2	43.278
1266	36.401
1460.2	33.121
1608.8	34.176
1576.7	36.125
1337.5	37.363
975.91	35.468
677	31.016
644.17	24.331
733.66	14.866
717.67	5.3852
575.17	5.3852
464.57	14.422
613.93	23.022
857.13	28.601
997.57	32.573
953.07	34.205
741.15	33.971
454.62	30.806
372.88	26.476
582.7	22.361
750.04	20.248
762.4	24.083
619.87	30.017
389.65	35.228
279.52	38.626
411.01	38.419
535.18	35.511
531.18	29.732
389.9	21.26
150.88	11.705
115.43	4.2426
350.77	9
499.33	14.866
537.68	18.385
496.81	18.385
428.43	16
410.1	13.342
441.39	11.402
442.04	12.369
380.62	16.125
241.41	18.028
80.623	19.026
152.07	18.028
282.64	16.155
344.54	13.342
324.6	9.8995
237.07	6.7082
131.53	5.831
105.69	9.434
156.55	13.342
178.03	17.464
166.72	19.849
174.18	19.313
242.84	16.031
327.01	12.083
385.66	8.544
393.94	10.05
362.14	13.928
300.73	15.62
233.07	16.031
172.93	14.866
119.57	14.142
104.66	16.125
155.19	17.72
229.61	18.601
276.22	15.033
275.36	9.0554
213.02	7.2111
109.62	16.401
76.655	25.962
177.65	33.956
254.79	36.77
269.28	33.541
215.47	25.942
122.3	16.279
100.57	12.166
192.85	20.248
253.24	27.459
255.52	30.414
202.7	26.683
186.49	17.464
2704.4	31.241
2352.1	25.239
2343.7	21.932
2608.4	18.111
2903.4	11.705
3038.3	2.2361
2940.9	11.402
2607.7	23.022
2104.5	31.385
1527.5	36.249
990.61	37.483
596.55	35.355
347.97	30.15
130.19	25.239
216.36	19.647
695.67	15.264
1280.1	10.198
1898.3	6.4031
2482.2	5
2983.4	8.0623
3359.5	10.63
3606	11.18
3710.5	11.18
3683.8	8.544
3527.4	9
3260.1	15.133
2907.1	24.187
2511.4	32.757
2120.4	39.446
1793.6	42.012
1576.8	39.699
1499.1	36.014
1576.2	36.892
1795.9	45.695
2110.6	60.539
2438.9	74.726
2690.5	82.219
2781.9	82.377
2667.8	75.286
2329.4	62.37
1791.8	47.011
1122.1	33.526
425.41	26.683
371.7	23.022
878.37	18.682
1203.9	11.402
1274.3	7.0711
1085.3	12.083
678.78	17
351.28	16.125
835.51	14.142
1499.1	19.235
2053.4	32.894
2384.4	49.01
2411.8	59.942
2130.4	63.812
1633	59.008
1304.1	47.434
1722.4	33.734
2596.1	22.672
3440.6	22.825
4008.4	26.926
4178	27.659
3903.6	24.597
3227.9	26
2296.6	34
1436.1	43.841
1310.7	49.396
1879.9	46.271
2395.8	35
2591.6	17.72
2416.9	5
1936.7	22.136
1295.3	35.228
728	40
671.43	35.805
934.15	26.476
1048.6	18.028
913.15	21.932
551.33	32
38.91	38.275
521.15	38.833
1018	36.056
1382.4	34.205
1567.3	36.878
1556.1	42.107
1386.7	45.706
1115.7	44.777
848.12	41.617
736.72	37.537
825.98	36.797
981.43	37.443
1077.2	37
1061.3	31.016
927.11	20.616
711.35	8.0623
472.72	17
322.28	31.145
371.25	41.785
473.29	47.265
521.46	45.804
518	37.577
511.71	27.019
548.73	15.811
621.95	10
682.26	15.297
692.71	23.537
654.45	29.732
604.15	32.28
589.7	33.242
606.7	31.145
622.99	27.313
588.41	22.204
494.84	20
386.76	18.248
349.69	17.088
417.21	13.038
493.97	7.6158
507.53	8.544
431.9	17.088
282	24
123.76	26.926
186.5	25.456
331.44	18.868
417.14	12.806
412.16	17
330.35	25.807
193.15	32.757
76.295	34.132
146.34	29.967
236.89	20.248
268.25	8
242.64	4.4721
180.85	15.652
126.59	21.378
131.9	23.431
163.25	22.091
170.74	18.868
152.19	17
113.55	17.117
74.632	14.866
47.043	10.44
47.802	8.544
82.662	15.297
139.12	25.554
196.5	32.249
236.63	35.384
245.88	32.985
215.68	25.298
173.22	14.213
155.08	1.4142
193.38	12.207
247.15	21.471
270.6	27.074
250.2	28.601
190.52	26.571
106.96	21.19
44.045	17
83.6	15.232
126.19	16.763
138.22	19.313
130.39	20.809
142.95	22.091
185.66	20.616
232.07	15.811
265.17	8
3141.1	24.515
2404.3	14.56
1840	14.422
1842.2	17.464
2324	18
2844	13.454
3151.9	10.296
3167.3	17.72
2879.3	29.069
2369.2	39.459
1747.4	45.967
1171	47.297
813.01	42.72
717.41	33.015
722.3	22.091
846.01	11.662
1293.2	8.544
2027.7	12.806
2864.7	14.142
3645.7	11.705
4224.7	5.6569
4505.3	2.8284
4453.5	9.8995
4087.4	14.866
3491.1	18.028
2790.8	17.889
2121.2	17.029
1590.8	17.205
1278.1	19.313
1238.3	24.083
1479.5	29.069
1908.9	36.346
2389.1	45.222
2779.2	56.754
2981.1	68.029
2939.8	77.026
2669.3	81.394
2243.8	79.649
1777.8	72.111
1384.1	57.871
1101.8	40.224
856.87	24.042
559.15	17.889
195.21	26
264.17	33.971
606.6	37.643
801.04	35.44
800.48	27.803
687.59	18.028
805.25	6.4031
1294.2	6.4031
1874.2	17.72
2328.4	28.653
2508.4	39.051
2332.8	48.26
1793.9	55.326
966.75	59.397
452.88	59.414
1390.3	55.073
2402.1	46.519
3214.5	34.366
3713.7	20
3863.1	8.6023
3665.8	11.18
3183.7	20.224
2511.6	27.586
1790.3	32.249
1265.3	34.409
1251.7	34.713
1604.4	34.132
1943.7	31.78
2101.6	28.018
2035.3	23.087
1754.8	19.416
1324.6	20.591
839.62	26.077
458.02	31.401
444.29	36.401
605.92	37.108
667.58	35.468
591.49	30.887
471.11	26.249
510.66	24.739
758.15	25.318
1055.6	28.018
1299.2	29.12
1450.2	28.302
1491.6	24.759
1429.5	20.518
1275.2	19.799
1064.6	22.672
853.05	26.42
713.5	27.459
679.79	25.71
695.51	19.105
659.9	9
525.38	8.6023
300.01	21.024
197.43	33.121
479.53	40.497
776.1	43.29
978.4	40.162
1043.6	32.016
956.77	20.518
746.58	15.232
497.11	22.204
403.61	32.573
560.5	39.205
741.93	40.817
824.32	37.483
782.3	30.265
627.58	22.804
394.61	18.439
138.29	19.416
119.33	20.125
309.14	17.692
438.1	10.198
495.49	2
499.94	11.402
465.3	20.616
413.53	26.476
362.05	27.857
322.42	22.672
315.41	13.342
331.1	0
338.71	13.601
318.45	26.173
252.98	34.015
149.78	36.62
53.852	33.061
154.03	24.698
277.72	12.369
362.11	5.3852
389.17	16.125
358.77	26.173
286.23	31.401
202.15	30.871
176.8	26.42
223.22	18.111
277.19	8.6023
301.78	6
285.95	13.601
228.19	20.248
145.11	23.854
53.488	25
53.535	23.022
132.5	20.616
198.25	16.279
238.17	10.63
260.35	6.3246
261.08	2.2361
237.53	2.2361
198.49	6.7082
135.06	10.05
58.31	14.318
37.108	18.439
126.92	22.561
211	26.249
265.37	28.32
297.69	28.443
291.73	27.313
243.3	24.187
175.73	20.224
126.18	15.811
144.62	13
198.25	12.042
3396.4	21.095
2169.4	4.2426
869.4	12.083
1204	22.204
2447.7	27
3405	27.586
3887.9	27.019
3870.6	27.459
3418	31.048
2654.5	34.409
1766.9	36.014
938.8	35.355
537.91	32.202
841.98	27.893
1252.3	23.195
1610.9	18.358
1921.5	13.892
2183.3	8.0623
2396.3	5
2584.5	7.0711
2813.2	10
3114.4	10.198
3467.8	8.4853
3787.2	7.2111
3970.4	11.402
3941.6	16.125
3660	20.025
3139.9	20.591
2419.5	19.105
1578.9	20.518
809.43	28.018
906.37	39.56
1697.7	52.173
2461.1	64.382
3031	73.756
3306	79.85
3237.3	80.156
2828	76.007
2121.6	67.119
1221.9	52.326
262.32	34
638.2	17.029
1310.2	17.029
1677.8	30
1692.7	40.522
1385.8	43.566
922.22	40.224
880.21	31.064
1523.1	19.313
2276.8	11.314
2857.8	17.464
3143.7	28.636
3072.8	36.797
2654.9	43.382
1980	47.043
1243.3	48.847
981.44	48.415
1467.2	47.265
2038.3	44.294
2397.9	41.629
2498.9	37.108
2413.7	31.401
2312.2	22
2341.6	9.434
2510.7	6.0828
2686.7	22.804
2731.9	38.288
2605.4	49.497
2354.2	55.036
2117.8	52.154
2030.5	43.186
2090.6	29.069
2147.7	19.235
2068.3	24.042
1783.4	34.928
1318.4	42.579
745.63	44.204
168.65	40.311
311.86	34.205
623.73	28.284
741.9	26.306
697.14	27.074
614.36	27.295
664.31	24.698
869.92	19.723
1096.8	15.264
1262.6	13.928
1357.1	14.866
1406.1	15.652
1434.2	14.422
1445.1	13.454
1411.7	12.042
1291.5	11.18
1067.9	10
749.86	8.4853
370.68	10.77
69.656	18.385
378.7	26.683
627.22	33.242
767.46	36.688
796.12	35.693
736.54	30
622.72	21.471
500.48	9.0554
397.29	3.6056
330.6	14.765
317.65	24.083
385.01	28.46
507.57	29.732
635.44	27.731
720.51	23.087
737.84	16.279
680.49	10.198
570.32	9.0554
467.55	12
445.54	13.928
487.58	13.601
518.55	14.142
484.16	14.765
360.62	17.088
173.81	19.235
50.12	20.616
250.49	18.868
393.59	14.56
447.6	12.042
408.17	16.155
279.21	22.825
109.66	28.792
105.85	31.321
244.52	30.61
321.31	25
320.04	16.971
263.43	12.083
219.51	14.318
265.11	19.723
349.78	24.187
394.12	25.612
364.72	22.847
268	18.111
163.53	10.817
208.58	3.1623
332.88	5
422.52	12.042
435.61	18.028
368.33	22.672
245.58	25.495
134.83	25
172	22.847
261.82	18.439
296.4	11.402
261.12	3.1623
174.39	4.4721
100.66	10.817
169.66	15.524
263.91	18.111
313.98	21.024
309.23	21.932
262.46	24.597
199.61	26.077
180.8	26.571
194.81	26.907
198.6	24.331
168.15	21.471
110.14	17.088
78.102	13.892
130.78	14
3271.2	13.601
2289.1	5.3852
1007.9	9.0554
443.76	14.318
1807.3	16.643
2956	17.205
3736.6	19.313
4059.2	23.087
3912.1	30.083
3341.5	37.014
2451.1	42.19
1397.2	45.277
471.39	44.011
933.74	39.217
1727.6	31.765
2298.8	22.472
2610.8	14.142
2685	11.402
2583.5	12.53
2416.1	15
2335.4	16.031
2481.2	17
2863.9	16.125
3364.6	14
3820.2	12.369
4091.9	15.232
4076.3	24.207
3700.4	34.059
2968.6	40.804
1932.9	43.324
782.13	39.623
915.54	30.871
2074	28.16
3057.1	42.45
3669.8	64.637
3835.5	84.534
3539.9	97.252
2840.1	99.202
1857.9	90.443
753.82	70.838
361.77	43.829
1192.4	20.518
1717.2	26.401
1860	45.277
1643	57.871
1196	59.464
880.2	50.249
1213	33.734
1836.2	16.492
2367.1	17.117
2665.8	29.967
2691	38.833
2455.7	38.949
2021.9	32.249
1465.1	26.42
936.62	32.202
783.08	47.927
1170.5	61.008
1688.2	68.6
2130.3	66.648
2418.4	56.321
2521.5	38.897
2470.9	19.026
2331.9	12.207
2228.5	27.893
2228.9	41.617
2322.9	48.01
2429.6	48.6
2457.7	44.272
2402.4	37
2298.9	29.155
2199.3	24.739
2130.2	24.187
2042.7	27.295
1865.1	31.828
1554.1	35.44
1121.4	37.108
659.2	33.971
399.51	27.514
549.23	17.029
697.75	7.0711
653.32	11.662
406.21	20.518
201.82	25.71
640.89	25.632
1154.2	19.723
1580.3	10.77
1844.5	7.8102
1915.4	16.125
1800.8	23.77
1549	26.401
1217.6	23.259
873.18	14.56
563.45	4.1231
316.94	13
135.06	27.313
89.694	39.395
204.79	47.434
327.82	50.12
446.75	49.729
544.39	45.177
621.08	38.079
658.74	30.414
650.6	26.627
591.85	26.926
503.59	28.071
422.43	26.907
412.83	21.213
479.35	11.402
562.65	11.18
618.63	23.087
641.35	33.302
658.55	40.2
699.54	39.408
755.75	31.401
791.31	18.439
763.21	14.318
658.32	27.019
483	40.025
291.11	48.549
215.65	49.477
323.19	44.777
428.85	40.804
454.76	41.593
395.43	49.396
265.32	56.436
100.22	59.666
83.63	56.303
213.44	47.381
297.47	38.21
315.94	32.894
292.1	31.401
239.2	29.698
176.39	25.08
131.24	15.264
112.92	6.7082
117.62	13.038
137.67	22.672
162.11	28.16
190.67	28.844
218.4	26.401
252.6	27
294.12	33.121
332.03	39.925
341.97	44.777
310.72	43.324
234.18	35.847
120.67	24.042
66.851	13.153
187.77	12.042
301.73	16.553
375	17.088
392.82	12.083
364.64	5.3852
310.28	14
250.05	25.456
199.7	35.355
155.26	39.812
107.3	38.275
69.405	31.145
103.97	22.136
167.36	13.892
216.06	9.8489
218.87	10.817
185.93	10.77
139.6	10.63
3717.3	32.016
2908.4	13.892
1868.8	9.2195
1353.9	23.431
2075.3	34.132
3006.5	38.484
3594.1	36.235
3696.9	30.364
3361.2	23.195
2735.9	23.195
2061.9	28.071
1547	33.121
1192.9	37.121
798.95	37.855
468.34	36.62
1122.9	34.366
2153.6	30.232
3120	25
3795.6	18.682
4031.3	16.125
3808.7	19.849
3279.7	26.077
2855.1	28.425
3011.9	26.019
3654.1	18.028
4275.8	13.038
4507.2	24.083
4192.6	39.013
3325.3	51.4
2044.3	56.08
758.29	51.157
1375.5	39
2636.5	26.926
3556	36.222
3986.8	60.033
3903.6	81.939
3383.7	97.309
2567.6	101.43
1645	93.408
888.24	75.717
753.33	50.636
1055.2	31.048
1261.3	35.468
1283.3	50.774
1182.9	62.936
1058.8	63.906
993.53	55.227
1045	40.025
1210.7	26.926
1464.8	28.178
1752.3	38.91
2009.2	45.188
2164.2	42.297
2190.6	30.017
2094.7	13.928
1934.7	23.259
1785.4	45.354
1707.7	64.327
1681.1	75.166
1644	74.632
1576.9	64.56
1523	47.434
1579	28.46
1771.5	22.804
2029.6	35.355
2264.3	47.434
2430.6	52.811
2535.2	50.448
2606.6	42.426
2657	32.28
2657.3	22.204
2563	17.464
2332.4	17.692
1975.7	22.136
1567.2	29.12
1239.3	36.401
1128.8	42.012
1196.5	43.012
1240.6	37.947
1141.6	26.926
875.76	14.142
473.48	12.369
192.07	24.515
604.29	34.986
1051.3	38.275
1406.9	35.468
1624.6	26.571
1701.1	19.849
1633.1	23.601
1445.6	32
1173	37.483
891.65	35.128
705.39	26.249
683.03	14.866
737.88	18.868
725.67	36.014
597.37	51.856
386.81	60.638
328.46	61.847
585.18	55.57
862.42	44.721
1036.5	32.249
1048.2	24.413
899.35	25.318
626.92	28.653
343.49	27.659
375.93	21.401
634.95	12.166
834.55	5.6569
917.68	16.643
884.15	27.514
794.62	34.205
722.02	34.713
716	30.15
746.3	20.809
747.66	11.18
684.35	13
549.47	23.537
363.19	33.615
162.8	39.56
61.074	41.437
177.87	40.249
260.35	38.079
295.1	38.328
295.31	42.802
282	47.17
267.11	51.856
245.51	52.612
222.04	50.478
207.87	45.122
238.61	37.443
307.54	31.064
381.45	25.612
427.93	22.472
424.84	19.416
359.24	16.279
239.01	13.892
124.31	15.811
195.5	22.361
351.9	28.32
475.66	34
532.16	38.21
511.43	40.05
411.61	39.825
261.55	39.459
84.309	37.443
82.492	34.928
209.4	31.385
283.16	25
294.27	18.385
252.01	12.042
183.83	9.2195
125	13.892
115	19.105
136.12	24.759
148.05	28.071
158.05	29.206
171.17	28.636
183.11	26.401
189.53	21.095
179.1	16.031
156.28	11.045
144.28	11.045
153.47	16.031
152.55	21.954
128.36	26.077
3193	39.459
2501.9	27.295
2298.4	15.033
2688.8	16.031
3165.9	26.627
3373.6	36.014
3203.8	39.446
2716.1	36.401
2070.8	29.155
1469.1	23.259
1087.4	27.803
882.8	38.949
629.33	48.662
327.79	53.16
745.32	50.21
1544.8	39.812
2353.5	25.554
3004.4	15.524
3369.7	21.213
3371.4	31.064
3004.5	37.054
2397	36.401
1930.7	27.203
2171.3	13.892
2978.8	11.18
3781.9	27.459
4247.8	42.154
4209.5	52.345
3637.5	55.471
2640.6	50.249
1551.6	38.471
1431.7	23.022
2419.9	17.029
3371.5	33.015
3900.2	52.802
3911.7	69.857
3437.3	80.281
2607	84.22
1617.6	81.32
675.06	72.422
275.98	60.465
654.78	48.662
815.69	40.706
820.59	40.249
932.76	43.174
1261	45.277
1649.1	46.487
1956.8	45.31
2120.2	42.485
2170	39.294
2158.6	35.228
2140	30.067
2104.7	23.345
2004.1	13.342
1801	1.4142
1527.3	13.454
1322.3	29.428
1396.4	43.081
1733.7	55
2120.2	62.29
2376.2	63.063
2389.9	59.059
2123.4	48.836
1592.1	39.115
941.55	32.65
852.86	36.056
1595	43.863
2407.6	48.662
3007.7	48.847
3291.2	42.521
3215.2	31.78
2822.8	25.08
2217.9	27.785
1551.6	37.336
1012.2	45.044
758.82	48.021
698.9	45.188
651.96	37.363
645.7	29.069
792.58	23.601
1001.4	25.318
1089.6	29.069
954.11	31.953
615.62	30.871
520.15	28.636
1098	26.476
1770	26.907
2275.4	29.017
2481	31.113
2340	30.067
1863.7	25.807
1157.2	19.235
376.56	13.601
403.02	16.279
911.64	24.187
1147.7	33.971
1102.4	42.19
876	47.413
756.4	49.649
971.54	48.508
1280.8	45.277
1443	40.05
1370.3	34.713
1058.8	30.017
576.42	26.173
23.431	22.091
506.03	18.358
900.62	15.264
1115.9	16.279
1150.4	20.248
1035.6	24.597
838.25	28.231
632.25	29.12
474.62	27.203
387.44	23.087
381.2	18.601
434.37	16.155
508.65	19.105
555.2	25.495
538.68	31.401
446.95	37.59
304.53	42.048
198.49	43.932
234.34	45.607
315.04	46.098
327.21	46.69
264.27	48
153.38	50.249
134.65	50.249
236.91	48.26
308.04	43.681
301.69	36.249
250.71	26.926
272.03	17.493
410.83	12.166
571.84	13.038
679.54	17.205
700.49	19.647
633.91	21.471
506.25	23.409
365.1	26
267.71	28.792
230.93	32.757
202.61	35.228
133.09	36.878
27.659	37.363
87.658	35.114
169.67	31.064
200.32	26.306
155.12	20.248
61.131	15.652
145.25	14.036
300.54	17.088
420.37	21.401
473.03	26.019
441.87	31.828
331.63	35.057
173.93	37.014
44.944	34.928
169.75	29.155
259.08	20.248
283.7	8.2462
240.17	7.2801
151.38	20.025
51.4	31.305
47.508	37.736
3599.9	26.627
3602.8	21.024
3463.3	19.105
3222.3	19.026
2896.3	17.464
2532.5	17.493
2152.9	19.209
1820.4	23.431
1532.3	26.926
1267.8	26.019
971.05	22.804
646.97	17.464
680.82	16.492
1280.1	23.087
2038.6	30.48
2737.9	35.735
3219	38.275
3355.8	38.91
3092.9	39.56
2441.2	40.162
1496.6	39.962
553.37	39.319
1026.9	38.21
1962.8	39.294
2654.5	44.272
3010.5	51.624
3033.5	57.974
2804.1	58.6
2429	52.773
2016.2	39.812
1672.5	22.204
1541.1	8.544
1758	24.042
2266.7	40.162
2841.9	50.249
3284.4	55.973
3448.9	57.009
3260.7	58.694
2726.2	63.135
1953.3	68.68
1173.6	72.125
850.85	69.857
1091.4	63.127
1247.2	53.235
1057.8	47.885
506.07	53.235
337.12	63.063
1267.5	70.214
2160.8	71.12
2872.9	62.394
3314	46.861
3450.9	26.249
3310.7	4.4721
2914.1	15
2307.3	29.547
1503.3	38.053
542.04	40.706
559.79	38.949
1603.7	36.674
2491.6	36.497
3059.9	37.855
3183.6	39.699
2807.3	41
1965.4	43.566
811.8	47.074
763.53	53
2018.4	58.523
3056.6	60.166
3670.2	56.604
3772.6	46.098
3383.5	29.206
2608.8	9.4868
1651.9	10.77
891.78	30
1013.6	45.044
1511.4	54.918
1807.4	57.585
1830.8	54.708
1643.9	47.508
1377.4	39.56
1171.9	31.953
1113.1	29.833
1174.9	32.062
1295.2	34.205
1447	35.057
1611.4	33.302
1732.7	29.614
1765.7	23.77
1670.9	18.028
1446.2	13
1124.2	9.2195
764.71	7.0711
486.42	9.2195
454.2	13.038
623.01	19.105
786.12	27.295
885.42	35.355
915.76	43.382
876.16	49.649
798.08	53.74
712.35	54.745
664.26	52.773
664.79	47.424
666.07	39.294
615.38	30.529
486.05	22.472
311.27	18.111
287.9	20.248
514.22	23.087
770.38	25.554
961.09	26.173
1055.6	23.431
1052	19.925
977.57	16.492
870.15	13.454
758.55	11.045
640.24	12.042
509.35	15.133
339.61	21.095
149.58	27.514
115.74	35.44
264.39	42.802
366.08	48.042
379.05	52.431
300.73	55.027
157.05	55.973
52.202	54.083
200.02	52.086
307.71	48.918
336.79	44.147
275.03	38.079
149.24	31.385
119.57	24.083
289.4	16.279
453.4	9
562.1	6.0828
598.97	8.9443
571.9	13.601
489.16	18.601
387.46	23.087
280.4	26.833
185.28	30.017
109.93	32.062
82	34.205
129.99	35.735
182.78	36.401
212.81	36.235
208.48	34.132
167.63	30.529
108.89	26
45.88	19.313
12.166	13.153
22	14.318
25.495	21.633
87.367	29.12
168.43	36.056
251.86	39.205
301.92	39.319
308.29	34.928
261.54	26.401
160.06	15.297
48.26	2.2361
134.38	11.18
258.63	23
343.48	30.414
371.44	34.67
4119.7	37.537
3589.8	27.893
2888.3	18.028
2301.4	10.63
2037	5
2046.8	6.4031
2145.8	10.817
2260.1	16
2353.7	19.723
2352.3	21.954
2110.4	19.026
1517	13.342
560.42	7.2801
717.2	16.279
2049.1	29.967
3228.5	43.012
4012.6	51.884
4235.1	54.918
3818.4	51.01
2848.9	43.012
1573.8	31.401
910.26	25.239
1829.2	31.385
2714.2	43.932
3100	55.036
2924.9	60.745
2316.2	60.033
1615.1	53.235
1471.7	41.677
1995.5	25.179
2577.7	12.369
2961.1	18.028
3188.9	32.016
3391.6	43.081
3620.1	49.163
3782.3	50.99
3733.4	49.518
3357.9	48.549
2657.2	48.703
1735.3	53.085
756.9	56.921
142.84	60.108
672.38	61.392
884.67	61.741
805.18	61.741
703.25	62.642
937.01	64.9
1340.7	64.281
1667.5	60.877
1881.8	53.151
2098.9	41.146
2454.8	26.926
2908.7	15
3252.3	14.422
3266.1	21
2826.6	26.627
1921.1	28.653
718.69	27.659
945.05	28
2230.2	31.401
3202.7	37.577
3629.7	44.598
3426.3	50.448
2672.2	54.12
1746.2	56.08
1737.2	56.321
2813.9	55.073
3911.2	50.99
4559.2	45.706
4599	36.77
4019.9	25.318
2940.6	12.207
1571.8	7.0711
475.89	21.095
1391.6	36.125
2348.9	47.202
2886.5	54.781
2972.4	57.07
2679.2	54.452
2163.6	47.676
1653.1	38.588
1423.9	31.401
1505.2	29
1626.7	31.257
1587.3	34.059
1349.4	35.228
992.89	33.106
774.31	27.803
954.3	20.881
1288	15
1512.8	10.198
1519	6.7082
1285.3	5.099
863.39	7.6158
440.97	16.553
636.74	27.459
1144.2	39.115
1556.1	49.244
1773.5	55.606
1778.9	58.694
1588.9	57.245
1269.5	52.498
913.34	44.553
644.61	34.438
573.45	25.08
621.02	19.235
626.77	18.028
526.42	19.799
328.26	23.087
136.89	24.597
351.78	23.854
664.56	22.023
926.74	19.698
1102.4	16.643
1159.7	15
1092.7	13.601
916.49	14.866
654.49	17.72
355.47	21.932
78.435	27.659
163.88	33.526
298.48	39.623
330.85	45.354
277.36	50.961
178.89	53.759
147.73	55.543
228.89	55.66
297.56	54.562
296.98	50.636
223.54	45.31
107.7	39.408
131.24	32.016
289.84	24.698
435.54	17.088
532.25	10.77
573.48	7
570.64	7.6158
531.02	11.402
471.97	14.866
396.11	18.974
314.03	23.022
230.15	29.069
155.62	34.059
129.42	38.079
152.9	41
176.14	41.11
173.97	39.217
149.91	34.713
109.02	28.284
77.897	21.213
82.928	14.866
89.811	13.342
87.052	17.464
79.057	22.804
111.29	27.586
169.57	31.321
226.29	33.377
261.08	32.45
261.81	30.017
233.38	24.021
165.1	16.125
79.511	6.0828
59.076	7.2111
163.08	18.111
258.86	26.401
331.89	31.623
3610.2	39.699
3853.4	36.056
3743.3	31.016
3318.8	25.495
2774.6	19.925
2427.2	17.72
2499.3	17.72
2794.6	20.248
2948.4	21.633
2735.2	20.616
2109.2	17.889
1142.6	11.705
338.52	9.2195
1376.2	15.652
2446.6	26.249
3238.9	34.438
3665.2	41.049
3715.9	44.407
3451.2	43.966
3001.3	42.544
2544.4	42.72
2296.1	44.283
2311.6	48.104
2431.8	51.546
2442.5	53.009
2209.7	51.039
1677.1	44.777
930.26	36.715
689.73	28.071
1625.3	21.26
2691	17.029
3581.5	18.385
4170.9	23.195
4384.8	30.871
4227.3	38.419
3749.5	43.174
3061.4	45.706
2303.3	45.277
1620.9	42.426
1140.9	41.617
894.93	45.177
723.06	54.571
470.35	64.498
118.19	73.783
449.81	78.715
991.78	78.313
1495.4	73.756
1889.7	66.491
2139.9	57.245
2255.9	47.17
2316.3	37.162
2405.5	29.732
2534.3	22.825
2622.2	18.439
2530.2	15.264
2156.9	11.662
1454.3	10.77
482.75	13.928
652.63	22.204
1753.3	30.806
2628	39.205
3126.5	45.177
3161.5	49.254
2789.2	52.631
2297	54.083
2257.9	55.606
2909.5	57.28
3755.8	55.444
4349.3	50.478
4460.2	40.249
4017.8	26.476
3082.6	13.342
1824.8	18.028
672.32	31.89
1239	44.181
2237.2	52.355
2871.9	55.471
3050.3	53.151
2806.3	48.415
2263.9	42.059
1606.9	35.735
1133.2	31.623
1105.2	29
1301.1	28.844
1403.4	28.636
1323.2	28.16
1136.4	27.203
1022.7	25.08
1129.6	21.213
1362.9	16.401
1532.3	11.705
1527.1	9.0554
1294.2	8.0623
858.44	10.63
303.21	17.088
465.55	25.179
1074.3	35.228
1567.1	43.829
1850.7	51.01
1892.1	55.073
1696.1	54.918
1330.6	51.245
904.6	45.88
621.82	38.21
662.2	30.083
799.18	22.804
812.8	17.205
658.05	14.318
361.58	15.264
165.89	18.111
508.1	22.023
848.98	22.847
1083	23.022
1173.9	21.932
1127.5	19.799
968.59	19.235
737.51	18.248
484.48	19.647
251.02	22.023
72.732	25.298
97.637	29.614
169	35.468
197.34	40.853
197.16	46.174
174.52	51.478
142.56	55.606
110.28	57.974
84.694	58.549
60.828	56.08
41.677	52.431
48.6	44.721
79.31	33.956
134.62	23.431
212.72	12.649
302.05	4.2426
406.43	6.7082
506.22	11
576.39	15.524
605.88	19.235
578.73	23.431
492.22	28.601
358.56	33.838
198.11	37
39.319	38.626
96.333	38.21
187.45	35.847
226.06	32.016
231.28	27.785
224.44	22.825
220.93	20.396
222.32	20
203.33	21.095
148.07	24.083
56.321	27.203
73.348	28.636
184.49	28.601
271.28	26.42
316.29	24.187
307.28	20.616
252.99	17.029
174.15	13.342
103.48	10
89.32	12.369
114.13	17
145.77	23.537
183.96	28.284
2387.9	26.401
3672.9	26.173
4584.2	26.926
4839.4	25.71
4329.9	21.378
3112.9	13.601
1410.7	3.6056
504.31	7.2801
2135.9	15.62
3243.4	20.881
3600.3	21.19
3206.5	17.493
2375.8	10.296
2101.7	12.042
3109.7	23.537
4431.7	35.228
5385.4	46.043
5733	52.631
5495.1	56.045
4893.8	56.303
4303.7	52.202
4004.7	47.096
3921.9	41.593
3714	36.056
3126.2	32.388
2116.5	31.048
968.29	31.89
1194.5	33.838
2393.3	36.139
3346.4	37.643
3834.7	39.013
3822.7	39.408
3410	38.275
2806.8	35.693
2339.5	30.806
2282.2	26.249
2560.4	25
2869.4	28.844
2997.7	36.77
2863.2	44.181
2446.3	50.01
1798.2	53.235
1086.9	55.902
908.24	60.745
1539.4	67.72
2234.1	74.169
2674.5	76.942
2747.6	75.452
2428.5	69.181
1771.4	56.939
952.15	44.272
637.52	33.287
1319.7	30
1979.3	30.61
2357.2	29
2407.5	23.324
2191.8	12.042
1882.4	10.44
1739.8	25
1945.7	40.112
2362.3	51
2782.5	56.223
3090.9	55.362
3270.3	51
3357.1	45.891
3386.9	44.598
3393.9	46.648
3356.5	49.578
3252	48.703
3036.6	43.738
2693.7	34.655
2235	25.318
1706.9	23.537
1198.1	32.558
905.8	45.011
1029.7	53.535
1403.3	58.138
1795.1	58.078
2116.7	53.339
2329.1	45.486
2402.2	37.483
2336.3	30.594
2136.1	25.554
1824.4	22.804
1442	22.361
1018.5	22.847
604.01	24.698
267.54	26.019
367.1	27.203
702.66	25.632
1014.3	22.204
1263.7	17
1410.6	11.662
1457.9	13.153
1432.3	21.84
1392.5	31.241
1403.5	39.925
1474.1	46.39
1562.6	50.606
1588.8	50.695
1508.3	48.374
1320.3	43.267
1045.7	36.892
738.23	32.016
453.28	28
255	28.16
187.22	28.601
198.48	28.178
199.61	26.173
198.8	23.345
209.47	21.095
262.62	18.439
378.72	17.117
541.78	14.765
716.13	11.314
864.23	10
931.64	14.765
898.94	24.839
754.48	34
520.67	41.11
241.35	46.174
67.209	47.011
292.28	46.043
443.44	44.944
485.58	46.53
432.73	49.254
304.57	52.393
154.33	53.74
64.288	52.202
154.93	47.265
231.62	38.833
276.7	29.967
301.63	21.213
322.19	13.454
343.79	8.544
366.55	7
413.75	8.2462
482.4	11.662
549.13	17.205
581.17	22.361
555.6	25.71
448.04	27.203
270.14	28.302
71.694	27.893
184.36	28.018
358.73	28.46
461.64	30
463.15	31.064
373.66	32.249
214.65	31.623
44.654	30.414
160.65	28.862
280.19	25.962
321.81	22.627
285.82	20.248
187.76	18.111
63.246	17
56.604	15.62
121.05	15.811
126.25	17.117
74.243	17.804
108.56	18.974
251.44	19.925
384.53	21.401
470.09	23
488.7	23.601
3536.6	21.213
4630.2	31.78
5053.7	38.419
4767.3	37.216
3864	30.017
2576.2	18.248
1389.6	12.166
1508.5	19.313
2452.9	27.731
3162.3	30.871
3436.4	27.203
3336.8	20.125
3102.3	13.454
3076.7	17
3430	23.77
4004.3	26.926
4537.6	27.785
4859.2	31.401
4908.8	41.037
4698.7	53.226
4307.5	64
3808	69.836
3261.9	67.119
2688	59.304
2071.7	45.967
1410.2	32.062
861.59	19.849
1017.3	9.2195
1717.5	6.0828
2439.4	20.125
2989	38.079
3271.1	54.231
3277.4	66.708
3078.3	68.964
2821.5	61.131
2694.4	42.426
2771.4	16.553
2932.7	16.279
2980.6	43.829
2778.5	65.008
2280.9	75.18
1529.2	72.111
641.36	58.249
541.34	40.05
1381	35.44
2073.4	50.596
2492.3	69.065
2591.6	81.302
2374.4	84.172
1880.9	80.523
1202.4	72.111
573.64	62.169
770.41	52.154
1412	41.485
1937.6	28.636
2243.6	15.556
2319.5	16.553
2234.4	31.064
2140.2	43.324
2232.7	49.477
2575.3	46.755
3052.6	38.949
3503.4	30.463
3825.6	28.302
3961.8	37.216
3895.5	47.127
3655.5	52.086
3283.1	52.326
2839.1	47.508
2379.9	39.85
1975.5	31.257
1653.6	23.431
1413.6	19.235
1234.9	21.26
1135.5	29.155
1197	38.91
1473.1	48.826
1876.5	54.589
2276.8	56.321
2564.8	53.907
2680.7	47.885
2593.6	39.623
2306.4	32.062
1871.8	27.659
1351.8	25.08
813.02	24.207
334.8	24.187
250.05	23.022
559.05	21.471
811.7	20.591
979.93	20.025
1069.7	17.493
1090.5	12.806
1088.6	7.0711
1124.5	11
1238.5	23.195
1408.1	36.235
1570.6	49.204
1654.2	58.249
1630.6	62.097
1496.5	59.548
1267.6	50.567
986.83	38.118
702.16	25.08
452.13	20.224
282.7	26.306
215.39	32.558
202.76	35.468
189.36	34.928
176.28	33.121
222.7	30.364
360.5	27.295
538.61	22.472
711.12	14.56
837.36	2.2361
880.23	12.042
827.83	25.495
688.57	36.62
490.35	42.426
295.17	43.417
189.23	38.079
218.93	33.015
242.59	33.287
195.49	42.202
142.04	51.856
207.87	57.94
336.48	59
421.37	54.083
422.76	46.4
327.15	39.051
174.26	33.615
203.08	31.623
432.83	29
644.01	26.401
785.31	21.401
822.21	15.033
763.32	10
618.18	5.831
424.53	3.6056
224.51	9.8489
68.029	17.029
99.985	24.739
157	31.048
162.2	33.422
123.81	32.249
61.984	27.893
16.279	25.318
69.527	27.295
125.45	33.015
166.01	37.947
182.72	40.46
175.55	38.91
141.8	34.015
86.833	26.926
60.638	18.385
126.18	11.662
194.76	8.0623
230.38	8.544
229.46	10.05
195.92	12.806
155.27	16.763
155.13	20.881
211.24	24.759
273.88	27.893
307.36	28.443
309.78	27.203
2962.9	20
3718.3	20.809
4088.6	19.925
4065.9	18
3658	16.763
2942.5	15.62
2045.5	13.928
1347.1	11.402
1597.6	9.2195
2456.1	10.296
3270.5	14.765
3818.9	21.587
4049.8	27.295
4020.7	32.894
3904	35.468
3880.6	37.216
4054	36.125
4341.1	31.623
4578.1	26.627
4647.5	23.707
4490.2	29.967
4140.3	43.566
3624.7	56.321
2967.9	67.179
2156.6	70.831
1187.3	66.408
388.63	53.907
1313.3	33.734
2448.4	11.402
3351.4	22.023
3872.2	46.098
3900.5	64.07
3442.4	74
2629.8	73.007
1815.2	61.847
1673.9	44.102
2256.6	28.636
2836.7	34.366
3054.3	52.393
2834.3	67.676
2271.3	75.166
1567	69.065
1082.8	53.009
1117.4	27.313
1330.5	5.831
1393.3	37.736
1325.5	67.03
1323.7	90.05
1493.2	102
1672.7	103.24
1643.2	93.814
1289.7	74.465
607.82	50.804
313.61	24.759
1308.9	5.3852
2205.5	21.378
2854.5	34.54
3201.7	41.11
3276.3	41.761
3241.6	37.054
3286.4	31.623
3484	25.08
3722.3	22.847
3846.2	23.77
3747.5	27.785
3456.3	32.558
3101.6	34.986
2842.9	35.693
2746.3	35.511
2712	34.132
2591.9	33.015
2308.3	31.575
1902	32.016
1507.1	33.971
1299.7	37
1318.9	41.593
1445	45.607
1595.4	47.927
1799.4	47.043
2075.2	43.382
2362.3	36.77
2545.5	29.682
2521.6	26.926
2250.5	29.53
1750.5	34.205
1101.5	36.014
444.63	35.114
364.94	30
799.15	23.345
1080.6	20.518
1177	21.213
1138.5	23.022
1050.5	21.84
984.99	17.029
981.79	10.198
1052	15.811
1195.7	30.414
1387.7	46.174
1575.3	57.271
1692.3	63.702
1674.6	63.063
1501.8	54.708
1189	39.825
799.18	20.224
468.18	2.2361
408.77	23.77
520.52	41.593
545.19	54.489
416.78	58.464
197.61	55.362
301.14	44.407
616.75	28
877.59	8.4853
1010.7	11.314
987.53	26.173
821.28	36.249
563.51	38.601
282	33.734
106.04	25.02
217.46	19.026
287.14	23.087
269.65	31.401
224.15	38.328
250.32	40.706
349.18	37.483
428.23	33.601
440.78	32.45
392.46	36.715
305.71	42.72
243.18	47.043
255.39	46.098
298.44	41.012
330	31.765
349.52	23.409
397.72	20.125
485.77	21.954
582.17	25.298
635.03	26.019
613.82	22.561
521.69	18.974
363.9	17.464
185.06	20.616
112.87	26.833
221.42	31.828
296.89	31.953
300.84	29.017
230.5	22.136
116.21	17.088
86.608	17.464
193.31	22.804
269.08	30.232
292.61	34.67
249.62	36.222
177.28	33.242
144.52	27.586
209.06	19.698
285.95	12.649
310.13	10.63
277.99	14.866
186.26	21.024
64.133	25.02
107.04	27.313
236.39	27.019
327.37	25.71
367.01	23.77
355.88	21.26
2447.8	24.083
2544.4	22.847
2594	18.028
2702.1	13
2801.3	12.166
2781.5	16.031
2634.8	19.313
2499	19.723
2603.3	17.72
3035.6	16.279
3632.9	20
4230.6	26.926
4729.8	34.132
5104.6	38.328
5331.5	38.949
5365.2	35.735
5143.8	30.15
4643.8	23.087
3920.9	23.537
3180.8	31.048
2758.7	42.19
2814	51.4
3059.2	57.974
3128.4	59.414
2877.6	56.798
2469.3	51.624
2347.6	44.777
2800.4	35.44
3482.4	24.739
3947.3	19.209
3940.1	30.232
3385.3	46.669
2365.6	61.847
1083.6	69.26
636.42	67.801
1736.9	55.785
2599.7	41.11
3015.1	40.706
2982.2	60.008
2590	81.394
1999.6	93.215
1417.4	90.338
1040.3	71.554
923.48	41.11
925.86	20.616
961.22	52.697
1052.9	88.6
1193	112.58
1314.1	120.74
1335.5	112.15
1231.1	89.694
1004.5	58.258
709.96	25.962
474.82	6.0828
616.14	19.313
1110.1	24
1753.3	16.279
2445.6	11.662
3116.9	26.87
3675	42.953
4044.8	52.086
4183.5	49.93
4079.3	37.577
3754	16.279
3267.5	9.4868
2706.1	34.886
2193.6	54.332
1901	63.891
1936	62.936
2184.5	51.662
2446	33.971
2576.9	14.142
2522.6	18.248
2291.4	37.336
1931.6	54.562
1555.7	64.537
1309.2	68.942
1316.1	66.242
1532.4	55.444
1810.3	37.537
2043.3	15.524
2165.2	8.6023
2131.8	29.53
1927.6	45.1
1564.8	50.804
1093.6	46.615
603	33.136
217.81	13.416
199.97	10.198
240.74	28.636
166.88	40
426.27	42.297
915.71	34.015
1440.5	17.889
1882.4	7.6158
2144.3	27.019
2180.5	44.294
1994.8	55.803
1647.3	60.638
1237.5	59.304
905.45	53.852
755.2	48.26
728.66	39.598
677.81	30.61
554.75	21.213
396.69	21.587
336.01	35.355
411.39	51.078
484.8	60.811
483.04	61.685
394.66	52.612
267.62	34.828
208.48	13
292.64	15.264
410.34	34.713
498.39	46.755
537.33	49.041
536.12	40.112
484.46	24.698
