698.36	7.8102
1537.3	10.63
1755.4	13.892
1404.9	16.279
818.43	17.263
948.32	16.125
1604.3	13.454
2010	12.042
2045.4	12.806
2002.5	15.652
2482.4	18.111
3509.2	19.313
4560.6	18.439
5212.1	17.117
5202.5	14.318
4478.6	10.817
3241.9	8.2462
2258.8	6.0828
2879.6	8.0623
4373.6	11.18
5627.1	15.264
6223.9	19.723
6030.5	22.023
5101.9	22.847
3630.1	22.672
1960.1	21.19
1040.2	19
1988.3	16.492
2968.6	14.318
3450.8	14.422
3397.2	16.279
2922.1	18.358
2342.8	21.213
2165.6	22.804
2633.8	23.345
3333.6	21.84
3835.2	19.647
3951.7	16.971
3613.8	11.705
2877.4	7.0711
1878.3	5.831
847.52	10.817
532.8	16.125
1079.3	21.024
1340.2	24.187
1187.7	25.08
674.85	22.672
282.46	19.416
987.85	13.416
1644.8	5.831
1992.4	2.8284
1953.5	10.296
1522.4	17.117
826.78	22.627
481.58	26.173
1149.4	27.295
1755.4	24.166
2033	19.235
1906.8	10.817
1417.7	5
666.93	12.53
209.99	21.024
985.02	28.178
1564.2	30.017
1837.5	29.017
1782.1	23.324
1456.8	14.422
969.45	7.0711
530.14	11.045
538.92	18.788
814.63	25
1005.6	26.077
1067.6	24.187
1051.2	18.788
1003.6	11.18
942.89	2.2361
836.96	6.0828
650.42	12.207
400.94	15.811
268.99	17.889
472.74	15.811
711	13.892
831.04	11.045
788.68	8.6023
598.09	7.2111
334.72	6.7082
328.96	8.0623
616.76	10.77
860.99	12.53
960.79	14.318
879.61	13.601
623.1	12.042
251.72	9.2195
232.57	6.7082
637.67	5.3852
943.04	8.2462
1080.4	10.77
1015.6	13.416
757.45	14.56
351.48	13.892
132.88	12.369
597.36	8.6023
958.53	5
1142.6	3.6056
1122.1	7.6158
895.88	12.649
506.83	16.155
75.133	18.358
448.76	16.125
831.11	13.454
1064.1	7.2801
1108.9	1.4142
978.66	6.0828
717.51	11.402
401.6	15.556
179.78	16.279
283.98	16.155
385.25	12.806
379.27	8.2462
297.66	4
300.83	2.8284
462.06	5.6569
642.65	7.6158
758.24	8.0623
770.47	8.6023
690.51	8.0623
568.28	7.0711
501.24	6.3246
549.01	5.6569
633.51	5.3852
673.62	4
642	2
561.22	1.4142
499.06	4.2426
524.47	7.6158
601.02	9.2195
663.01	11.314
655.82	10.05
572.04	8.6023
447.32	6.0828
370.42	3.1623
415.64	5.099
517.29	8.4853
585.16	11
572.88	12.042
484.53	11
358.35	9.2195
302.65	7.2801
380.95	7
497.9	7.6158
568.84	9.434
563.29	9.0554
478.2	9.8995
357.05	9.0554
270.75	7.6158
309.4	6.4031
407.19	6.0828
478.17	6.0828
487.99	6.4031
448.2	8.2462
364.79	8.0623
295.74	7.2801
275.97	5.831
294.09	3.1623
314.61	1
311.41	4.4721
2503.8	6.4031
1808.4	5
1511.7	6.7082
1908.1	10
2647	13.038
3340.8	14.318
3736.8	14.318
3638.9	12.53
2947.1	10
1703.6	10
678.12	12.207
2229.6	15.62
3964.2	18.385
5208	21.024
5629.3	20.125
5067.4	18.439
3539.6	14.56
1276.9	10.05
1430.7	7.2801
3993	10.296
6015.6	15.811
7118.2	21.024
7100.9	24.187
5979.8	25.807
3972.6	25.179
1483.2	22.136
1017.5	17.029
3046.4	11.402
4253.6	8.6023
4450.1	11.705
3684	16.643
2251.5	22.204
1287.4	24.515
2523.2	25.495
4000.5	23.601
4882	21.095
4984.9	16.492
4341	13.038
3161.8	10.05
1789	10.05
881.79	12
1251.2	14.318
1690	16.125
1669.2	17.692
1205.6	18.385
475.23	19
403.71	18.788
1063.8	17.029
1480.7	14.56
1587.8	10.05
1427.3	6.0828
1105.5	5.831
767.8	12.207
486.01	18.439
232.09	24.042
98.046	26.87
492.04	26.926
903.08	22.561
1216.6	15.62
1339.2	6.4031
1214.5	6.4031
876.7	16.553
515.88	25
699.85	31.385
1167	32.249
1520.5	28.018
1624.4	19.723
1461.3	8.9443
1070	4.1231
541.39	15.62
56.321	25.298
479.94	29.833
785.79	30.414
916.18	26.306
904.82	18.358
827.97	8.0623
772.47	5.831
749.39	15.133
715.02	21.26
615.87	25.02
470.05	24.207
384.75	21.378
497.2	16.279
698.64	12.369
877	12.042
973.82	14.422
974.98	16.155
875.61	16.763
665.82	17.205
368.05	17.029
118.56	17.029
424.24	17.263
760.66	15.264
989.55	12.083
1071.8	10
987.59	10.44
774.58	14.866
553.36	18
573.61	19.849
796.96	19.235
1000.1	15.264
1077.6	9.4868
1020.7	4.4721
878.9	8.0623
760.66	14.213
764.79	18.439
843.71	20.616
898.14	18.601
872.71	15.033
785.27	9.434
702.21	2.2361
685.29	4
709.82	9.434
699.93	13.416
607.24	15
415.21	13.892
179.78	12.207
155.18	8.2462
392.17	5
574.23	3.1623
668.92	5
663.98	6.3246
571.43	7.0711
416.56	6.0828
256.09	5.3852
265.17	5.3852
442.07	6.7082
616.19	7.8102
710.72	8.544
698.86	8.0623
568.59	6.4031
367.49	4
284.34	1.4142
485.12	5.099
715.61	8.6023
847.28	12.042
839.72	12.806
682.07	13.342
439.76	11.18
296.1	8.2462
464.46	5.831
672.67	7.8102
773.3	11.045
729.15	13.454
551.18	14
310.04	13.454
254.03	11.045
451.85	9.2195
615.53	7.6158
662.86	9
588.58	10.817
411.89	11.18
207.97	10.63
157.04	9.0554
302.31	6.4031
405.6	4.4721
429.9	5.3852
377	7.2801
275.36	8.0623
149.46	7.6158
70.831	6.0828
135.52	4.2426
234.45	1.4142
309.65	2.2361
343.55	4.2426
323.94	6.0828
2318.5	9.434
751.96	5
783.25	4
2044.4	8.2462
2962	13.153
3515	15.264
3709.4	15.264
3561.7	12.166
3054	8
2254	6.7082
1611.6	10
2112.8	15.652
3325.1	19.105
4363.7	20.881
4803.7	19.209
4423.4	16.643
3235.8	13
1721.8	9.4868
2170.8	8.6023
4227.1	9.8995
6035.1	14.142
7052.4	18.028
7068.6	21.84
6110.5	25.02
4498.5	26.401
2961.6	24.839
2742.9	18.974
3624.2	12
4222.7	4.4721
4017.3	10.05
3002.3	18.788
1521.8	25.495
1268	28.16
2721.1	27.295
3890	22.825
4354	17.029
4054.7	13.038
3142	14.765
1966.2	17.205
1253.2	17.804
1624.8	14.765
2099.2	11.18
2131.9	12.042
1699.6	18.385
974.46	25.06
385.72	29.155
729.54	28.792
1025.2	23.345
934.21	14.866
534.21	4.1231
543.41	6.7082
1222.9	16.279
1822.8	22.561
2133.1	24.207
2070.3	24.187
1669.2	20.396
1059	16
486.24	13.153
468.03	11.18
705.02	8.2462
712.52	6.0828
536.15	9.2195
529.26	16.125
888.12	23.195
1245	26.571
1421.4	27.019
1363.7	23.022
1142	15.62
977.45	9.434
1085.6	13.892
1324.2	23.195
1458.6	30.529
1365.1	32.894
1046.8	30.676
578.53	25.554
127.32	17.088
398.33	12.042
642.01	15.133
671.04	21.213
501.52	25.08
290.95	26.077
428.97	22.847
713.64	17.464
899.44	11.402
917.7	5.3852
771.51	5.831
521	9.0554
265.65	13
138	15.62
168.86	17.263
192.84	18.028
331.14	15.811
603.1	13.153
886.99	9.8489
1108.9	10
1205.4	15.232
1180.2	21.19
1091.2	25.08
1050.8	25.495
1129.1	24.042
1261	19.698
1342.2	15
1306.1	14.866
1154	19.235
937.25	23.431
736.05	25.318
631.51	22.472
612.63	17.72
599.72	10.817
540.77	5.831
462.03	8.0623
437.98	12.166
477.82	13.038
529.26	9.8489
530.58	5
473.14	2
381.54	8.2462
323.83	13.454
356.81	15.133
462.65	13.601
585.44	10.05
703.02	6.3246
807.53	8.9443
876.48	13.892
898.44	16.492
860.45	15.652
769.67	13
653.39	8.0623
541.81	4.2426
471	7.8102
441.94	11
426.2	12.042
403.84	11.18
385.88	9.2195
373.67	9.8489
370.74	14.213
372.06	19
382.03	21.932
415.54	22.023
475.71	20
548.11	18.974
603.75	18.439
618.51	19.799
597	22.204
560.9	22.204
540.27	20.396
557.14	18.358
582.6	15.232
591.35	12.166
556.42	11.314
486.99	11.18
392.48	9.434
312.41	7.2801
258.94	4.4721
219.66	2.2361
184.4	1.4142
147.11	1.4142
135.07	1.4142
161.24	1.4142
214.04	3.1623
262.19	5.099
306.81	5.3852
353.62	5.831
394.99	4.4721
422.92	3
435.23	3
3451.4	28.443
3277.3	23.324
3523.1	15
3663.3	11.18
3360.1	21.213
2579.1	30.61
1461.8	34.713
277.2	31.385
765.88	22.361
1369.3	14.318
1459.8	20.248
1105.5	31.906
754.2	39.294
1273.2	40.719
2082.9	34.015
2690.8	21.932
2981.9	12.649
3092.2	18.682
3339.5	27.313
3976.9	30.364
4880.7	25
5743.2	14
6295.6	2.2361
6401.7	17.464
6052.2	29.833
5367.4	35.468
4542.5	34.015
3814.3	26.173
3349.3	18.788
3151.6	22.136
3100.5	33.242
3110.6	40.249
3176.5	40.719
3305.9	33.956
3434.2	21.633
3444.2	7.8102
3217.3	12.369
2693.9	23.022
1884.4	26.926
897.11	24.166
499.1	15.811
1373.3	8.544
2099.2	15.811
2447.1	25.554
2344.4	31.385
1825.9	31.78
1040.3	26.173
637.43	17.117
1349.2	6.4031
2100.3	5
2554.6	10
2680.8	11.18
2576.9	10
2450.7	9.0554
2479.2	13.342
2634.8	17.029
2704.9	19.235
2527.5	18.028
2081.9	13.038
1486.9	7.2111
1122	5.3852
1348.1	10.817
1795.2	14.866
2105.6	16.031
2241.5	16.155
2320.2	16.401
2495.3	15.811
2774.1	15.133
3010.9	13.038
3051.8	11.045
2820.6	15.524
2369.9	22.804
1868.1	30.594
1579.5	35.355
1624.7	35.468
1777.9	32.311
1819.6	26.926
1714.9	24.759
1585.6	27.203
1591.4	31.385
1749.9	32.311
1881.5	30.414
1841.8	23.77
1601.9	14.765
1224.4	7.8102
898.57	7.0711
880.7	9.4868
1096.5	8.0623
1294	2.2361
1386.7	6.4031
1436.9	14.318
1533.6	21.471
1693.8	25.632
1851	25.495
1914.1	24.515
1846.1	24.083
1656.3	28.16
1408.8	33.242
1186.7	37.577
1041	38.275
947.65	34.886
852.71	29.614
712.73	26.173
548.81	25.962
413.27	27.857
367.61	27.731
379.1	25.632
393.86	19.698
407.19	12.369
470.92	7.6158
588.15	9.8489
727.35	12.53
841.01	13.601
894.9	10.817
863.36	7.2801
742.07	9.2195
548.2	13.928
353.24	18.385
371.08	19.235
604.76	18.248
835.06	13.601
982.55	9.4868
1009.2	8
911.79	9.4868
723.03	12.083
491.45	12.083
297.69	9.0554
200.74	5.6569
168.83	1
116	5
172.04	9.434
366.35	11.18
576.84	11.045
738.08	9.8995
817.32	8
826.14	5.831
808.21	7.2111
829.61	10.44
906.98	12.649
990.01	14.866
1020.4	15.297
959.37	15.811
818.52	14.422
648.56	13.153
524.98	12.53
487.25	13.416
482.37	16.763
431.57	19.698
312.6	21.024
143.68	19.416
109.42	17.205
263.06	13.342
360.49	10.44
381.54	10.63
361.37	12.369
360.76	13.038
439.45	11.18
549.83	7.2111
633.69	3.6056
648.28	5.3852
595	8.9443
486.28	11.705
356.82	11.705
255.31	9.4868
218.52	7.0711
217.19	7.2111
3496.6	26.173
3016.7	28.284
2583.2	29.275
2192.7	30.017
1839.3	29.547
1504	30.594
1172.4	31.828
850.9	33.242
571.97	33.615
431.15	34.54
476.32	35.171
584.21	35.609
678.27	37
823.09	37.014
1121	36.878
1593.9	34.886
2173.4	31.78
2805	28.862
3439.8	25.495
4062.2	22.361
4672.2	20.881
5265.2	20.518
5791.7	21.19
6180.1	24.515
6326	26.87
6163.4	31.257
5659	33.287
4873.2	35.171
3974.7	35.777
3245.1	34.176
2991.9	32.311
3203.8	29.53
3530.8	26.476
3682.7	23.431
3547.6	19.026
3134.6	15.264
2527.9	12.53
1824.1	12.042
1111.8	12.649
431.57	15
215.2	16.031
805.76	16.279
1325.8	16.031
1697.4	14.213
1849.7	12.166
1747	10.296
1398.5	8.9443
1004.5	8
1061.1	7.6158
1666.2	8.4853
2349	10.44
2898.7	12.369
3241.8	13.454
3392.5	13.038
3410.8	12.207
3376.5	10.44
3309.7	8.9443
3173.6	7.6158
2933.5	6.0828
2607.1	3.6056
2300.4	3.6056
2224.7	6.4031
2460.9	9.8489
2877.4	13.153
3256.6	15.556
3496.1	17.117
3556.4	18.868
3451.6	19.647
3235.4	20.591
2941.4	22.136
2600.7	24.166
2206.6	25.08
1787.8	25.71
1410.2	26.401
1152.7	25.02
1081.3	24.083
1115.5	23.195
1126.5	22.472
1058.3	22.561
919.14	22.825
740.33	22.472
587.35	21.19
508.15	19.723
505.12	17.117
541.37	14.213
574.67	10
571.13	6.4031
514.1	3
467.7	0
597.1	3.1623
922.75	6.7082
1339	11.705
1740.1	16.125
2063.6	20.616
2275.5	25.239
2383.7	27.459
2401.6	29.411
2362.9	30.594
2279.2	31.906
2138.2	33.242
1908.8	34
1595.6	34.205
1213.5	33.615
829.42	31.048
597.44	28.653
657.55	25
864.09	21.932
1075	18.788
1240.9	16.492
1366.4	14.213
1426.8	12
1389.1	9.434
1243	8.6023
984.1	9.0554
657.71	11.18
325.01	13
101.79	15.232
176.05	16.155
204.4	15.652
206.5	14.866
400.47	15.232
710.67	14.318
1010.9	13.928
1216.4	13.416
1280.9	12.649
1183	10.296
957.65	9.0554
669.48	7.8102
437.16	8.0623
373.8	9.0554
432.66	10.63
506.44	12
623.51	11.314
823.98	11
1074.7	11.314
1289.2	10
1415.2	8.6023
1418.6	7.6158
1316.8	7
1153.6	7.2801
982.32	9.434
852.96	11.18
743.58	14.142
621.15	16.971
447.64	18.028
236.77	20
72.945	21.213
218.67	22.204
348.07	22.361
406.34	21.633
401.06	20.616
363.05	18.358
332.27	15.297
311.81	12.806
265.65	11
175.64	9.434
106.96	8.544
227.3	7.2801
406	6.4031
553	6.3246
651.51	6.3246
687.28	7.8102
690.87	8.0623
676.1	7.8102
664.15	8.0623
644.01	7.2111
2157.8	48.26
2735.3	48.836
3268.6	49.031
3526.1	48.754
3532.1	47.413
3362.6	45.706
3139.7	43.186
2937.5	39.115
2746.6	33.838
2503	29.411
2182.7	24.166
1805.9	18.385
1503.7	13.038
1480.1	8.9443
1879.2	11.705
2597.5	18.111
3479.1	24.083
4390	29.017
5187.2	32.016
5744.6	32.985
5978.3	33.838
5867.7	34.828
5494.7	37.656
5014	41.437
4595.1	47.011
4320.9	53.151
4148.9	60.208
3986.5	64.846
3816.8	68.007
3755.9	68.6
3912	64.777
4237.2	59.414
4539.3	51.478
4595.1	44.777
4289.1	40
3624	36.497
2692.8	35.114
1662.6	34.713
742.55	32.558
294.93	31.016
489.22	27.803
518.84	23.345
471.55	19.235
725.28	19.313
1145.6	23.431
1469.5	30.463
1567.2	36.878
1450.5	40.46
1310	42
1524.3	39.205
2107.7	35.171
2789	29.411
3331.2	24.042
3634.9	20.125
3661.8	20.224
3448.1	24.515
3072.7	29.069
2634.2	33.242
2251.6	35.468
2003.6	34.482
1920.9	31.257
1984.2	26.173
2157.2	20.248
2420.4	17.263
2772.5	20
3171.3	25.495
3562.6	32.45
3863.1	39.051
4006.5	43.932
3940	47.518
3661.5	49.092
3232.9	47.297
2778.1	43.046
2454.2	36.139
2345.3	26.42
2376.4	17.464
2380.2	7.0711
2263.3	3.6056
1987.9	12.042
1612.7	20
1223.9	27.166
952.34	32.016
918.76	34.132
1094.9	33.971
1347.2	31
1576.2	26.249
1731	20.881
1775.9	15.133
1734.3	13
1719.2	15.62
1901.2	18.788
2329.9	23.195
2879.9	27.586
3387.5	31.016
3744.4	32.558
3883.2	33
3802.3	32.65
3553.8	29.833
3194.6	28.231
2779.9	25.239
2333.8	25.02
1886.6	26.077
1455.5	26.926
1150.9	29.12
1130.6	30.232
1346.9	30.265
1583.4	28.425
1702.2	26.173
1641.9	23.022
1411.9	18.974
1045.9	16.492
622	15.62
208.34	15.524
137.13	15.811
384.52	15.264
530.16	14.318
607.42	12.207
675.25	9.4868
750.63	8.0623
838.8	7.6158
894.64	9.8995
913.6	12.369
885.43	14.866
828.57	17
756.11	18.028
665.62	17.088
565.8	16.643
433.66	17
268.64	18.868
77.466	19.698
152.64	20.616
388.57	20.809
624.23	20.025
841.33	17.692
1019.5	15.133
1153.6	10.817
1224	5.831
1226.8	2.2361
1165.2	7.6158
1041.9	13.892
876.34	19.416
679.4	22.825
472.66	24.352
278.49	23.77
172.05	21.471
249.51	18.248
372.17	14.142
455.74	11.705
494.5	11.045
478.91	12.369
411.9	15.556
306.62	19.105
193.49	20.248
180.61	21.378
304.93	20
465.66	19
613.77	17.493
730.93	17.889
795.41	18.111
799.29	18.439
737.13	18.682
626.33	18.028
467.34	16.643
294.28	16
133.96	14.422
112.29	12.649
1641.1	48.754
2724.7	52.802
3683.5	56.321
4279.5	59.363
4473.6	60.828
4301.7	59.666
3875.1	58.034
3391.5	55.227
3056.6	51.478
2926.2	46.325
2864.5	40.804
2664.2	32.696
2281.6	23.259
1966	13.153
2265.8	5.099
3214.6	13.601
4337.2	24.021
5286.8	32.016
5861.4	38.639
5979.4	41.677
5659.1	43.463
5054	44.911
4424.4	47.381
4041.1	51.971
4040.8	58.6
4285.6	66.189
4565.1	73.007
4735.5	78.237
4802	80.753
4811.5	81.056
4792.1	77.233
4708.1	70.725
4499.1	63.127
4087.4	54.083
3476.5	47.539
2698.7	44.553
1869.3	43.186
1112.6	42.953
599.14	42.048
482.08	38.471
543.13	33.242
603.1	29.206
784.85	27.295
1107	30.067
1453.1	34.438
1724.3	40.706
1856.8	44.911
1873.6	48.6
1854.3	48.26
1921.1	46.011
2129.4	41.012
2411.5	34.409
2688.1	28.231
2884.8	26
2973.4	27.857
2952.1	33.601
2830.8	39.013
2628.7	41.773
2347.9	41.195
2040.9	38.013
1810.1	32.28
1842.2	27.203
2209.1	22.672
2780.7	23.707
3381.9	27.019
3886.7	33.287
4220.2	39.217
4345.2	43.863
4280.6	45.88
4057.1	45.177
3725.1	41.976
3354.6	36.235
2992.5	29.069
2683.2	20.125
2446.3	13.454
2280	10.63
2148.1	14.866
2000.1	18.682
1786.5	23.087
1490	24.207
1118.2	25.02
801.28	23.854
807.4	21.024
1130.1	19.105
1488.3	16.125
1726.2	13.892
1792.5	11.045
1706.9	8.9443
1586.4	5.3852
1609.4	2.2361
1899.4	6
2354.9	12.042
2825.1	19.026
3198.6	25.456
3415.7	32.062
3449.6	36.401
3331.4	39.812
3090.7	42.059
2760.9	41.231
2371	38.328
1951.6	33.422
1517.7	27.166
1111.3	20.881
808.42	17.205
753.27	18.439
938.81	20.616
1185.2	24.352
1370.8	26.42
1460.3	26.926
1425.9	26.833
1278	26.401
1029.3	25.495
722.05	25.456
397.98	25.495
91.005	26.833
194.47	26.401
396.85	25
551.66	20.248
688.72	14.142
834.65	7.2111
996.03	5.3852
1153.6	13
1258.5	20
1273.6	25.495
1190.2	28.178
999.86	30.871
729.38	31.575
412.7	33.242
163.81	34.366
325.4	35.355
573.51	35.341
767.46	34.928
885.52	32.016
941.12	29.017
947.07	23.324
918.45	18.868
878.26	16.763
835.33	20
793	25.06
752.77	30.463
715.86	34.176
661.92	34.015
617	30.083
571.58	22.472
518.48	13
462.08	2.8284
402.36	8.4853
339.05	18.111
258.75	24.839
174.35	31.145
92.098	33.422
17	34.234
86.47	32.802
176.58	30.594
267.23	26.42
360.56	21.541
441.58	17.263
506.53	14.866
533.97	13.342
540.18	11.705
516.02	9.8489
483.93	6.3246
454.01	2.2361
433.85	2
409.03	5
379.39	7.0711
3570	55.444
3915.6	63.506
3760.1	70
3271.4	74.813
2704.6	76.609
2286.2	76.118
2114.6	74.33
2183.8	69.857
2414.7	64.885
2704.2	58.189
2892.7	49.769
2837.7	38.471
2527.4	27.074
2262.8	18.682
2722.3	22.472
3943.8	33.242
5361.8	43.186
6511.2	50
7102.5	53.6
6973	54.083
6115.2	51.662
4702.2	50.567
3170.8	50.09
2527.5	52.631
3433.2	55.227
4749.4	58.241
5760.1	60.008
6275	60.902
6269.9	60.407
5857.7	60.208
5152.7	59.439
4297.7	57.271
3425.7	55.462
2657.9	51.546
2114.3	49.659
1874.1	47.854
1853.8	48.052
1862.1	50.448
1758	52
1507	51.74
1130.9	49.649
699.35	45.177
347.35	42.19
336.82	43.046
569.86	48.374
857.79	55.543
1228.7	62.298
1706.5	63.953
2247.3	62.936
2774.6	56.356
3192.8	48.508
3435.8	39.205
3448.1	33.242
3213.2	31.953
2774.9	34.409
2227.8	36.125
1773.7	37.643
1631.8	36.346
1817.9	32.757
2092	28.46
2334.4	22.847
2577.6	17.464
2912.8	13.892
3402.6	13.153
3964.9	17.464
4438.6	24.166
4710.8	31.78
4701	39.294
4401.6	44.822
3886.1	48.042
3260	47.434
2637	43.658
2121.2	36.401
1781	27.019
1655.4	15.133
1737.2	4.1231
1943.4	10.198
2138.2	20.616
2201.2	28.16
2054.7	32.311
1718.5	32.757
1322.5	30.15
1214.6	24.839
1552.3	17.72
2029.3	10.05
2375.6	5.099
2504.1	7.6158
2434.8	11
2325.3	12.207
2361.6	9.2195
2644.1	5.3852
3052.1	9
3413.2	18.028
3603.2	28.443
3575.1	37.643
3346.3	45
2973.8	49.041
2539.8	49.244
2122.9	46.519
1774.7	39.825
1497	32.14
1267.8	23.022
1063.5	13.454
918.15	12.207
911.22	19.209
1083.9	26.401
1354.2	31.401
1607.4	33.971
1772.8	33.015
1803.6	31.145
1682	29
1416.4	27.019
1038.6	26.683
615.08	28.178
312.93	28.16
477.6	26.42
783.61	23.537
1004.5	18.601
1129.8	11.18
1150.7	6
1096	7.6158
998.42	14.142
886.74	20.616
782.41	25.08
710.88	29.069
661.04	32.062
608.1	33.971
517.92	35.014
387.58	36.878
259.98	37.336
322.19	38.275
568.08	38.079
835.68	35.355
1066.7	31.953
1211.3	27.203
1244.7	21.932
1177.3	21.541
1024.9	24.083
836.62	29.833
662.15	34.234
565.22	36.235
555.73	34.015
570.83	28.32
569.7	19.235
532.49	7.8102
462.81	5
380.64	16
290.77	24.839
211.15	30.594
138.41	33.541
103.71	33.106
79.812	29.833
61.465	25
92.358	20.1
205.88	15.556
347.21	12.042
487.97	9.434
607.16	7.6158
657.95	7
637	7.2111
547.75	8.544
421.41	9.4868
345.9	10.296
375.26	10.198
462.35	9.2195
520.59	8
6130.3	101.02
7113.4	101.55
6986.7	97.739
5870.7	88.142
4074.4	74.673
2078.6	59.615
1202.4	42.953
2602.8	25.495
4018.5	12.649
5031.5	15.297
5610.7	27.893
5788.9	37.802
5742.1	42.048
5903.1	40.361
6661.5	33.541
7964.7	24.515
9297.6	25.962
10083	38.833
9891	55.362
8521.3	68.949
6044	78.39
2779.1	85.159
1057.6	90.609
4308.9	98.25
6915.6	106.02
8401	112.38
8607.9	113.44
7595.2	106.53
5689.6	92.617
3368.9	71.176
1694.1	46.669
2550.5	22.023
4000.8	2
4944.4	19.105
5277.4	31.623
5101.1	42.059
4562.5	51.546
3776.1	62.426
2905.9	72.173
2204.8	79.931
2068.4	82.608
2512.9	83.355
3107.7	82.347
3519.1	85
3676.8	90.554
3637.4	99.298
3491.4	105.82
3291.2	108.81
2987.1	103.32
2483.8	93.776
1746.6	80.654
1009.4	69.203
1279	60.299
2281.9	57.245
3204.7	55.009
3786.6	50.448
3932.3	41.881
3669.8	28.443
3111.3	13.454
2429.8	7
1797.5	18.111
1360.7	26.173
1259.8	29.069
1610.6	27.295
2330.1	25.612
3235.1	32.573
4132.3	45.122
4855.9	59.641
5265.4	71.589
5299.6	77.026
4957.3	75.611
4328	67.067
3545.4	52.773
2758.2	35.468
2124.4	20.025
1646.6	21.213
1236	33.838
798.39	43.829
377.48	49.396
493.71	48.703
896.16	42.19
1136.1	31.401
1146.8	18.601
1026.2	7.0711
1143.5	11.18
1679.1	20.518
2351.8	26.019
2945.3	27.659
3354.5	26.077
3643.5	22.023
3960.6	20.125
4427.9	25.02
4975.7	33.601
5401.5	41.304
5459.5	47.381
5019.7	49.82
4043.5	48.466
2657.2	43.417
1075.4	35.903
453.93	27.166
1675.7	20.881
2415.1	19.925
2651	22.361
2533.5	24.759
2442	27.313
2717.9	27
3276.6	25.495
3759.7	22.804
3895.6	21.378
3619.5	18.974
2987.9	18.601
2218.2	19
1660.5	20.616
1623.1	23.537
1859.3	25.942
1984	27.313
1840.1	27.893
1459.4	25.239
950.37	21.213
562.86	15.264
760.44	11.314
1226.3	14.422
1644.9	22.023
1935.9	29.069
2040.8	36.056
1952.8	40.311
1696.7	43
1341.9	44.553
1050.3	46.011
940.25	46.69
947.27	47.011
878.23	45.255
618.07	42
198.86	37.483
432.7	31.145
985.26	26.833
1426.2	26.627
1641.6	30
1589.1	33.971
1288.5	37.014
809.14	35
316.75	29.411
404.59	20.881
750.59	10
924.46	2.2361
885.56	13
688.6	21.401
382.03	26.173
89.006	27.857
157.38	26.249
260	23.087
230.82	20
107.91	17.72
189.03	17.804
393.15	17.464
570.26	17.263
657.41	17.804
651.67	18.248
550.19	19.416
382.13	19.235
172.9	19.209
82.134	16.125
313.46	12.806
530.43	8.2462
675.99	5.099
735.07	6.3246
5760.1	91.924
7955.2	94.541
9391.3	95.268
9503	94.005
8169.7	88.091
5673.2	78.645
3177	63.506
3881.1	44.721
6545.4	23.345
8564	1
9320.7	19
8910.1	35.609
8123.8	44.911
8301.1	47.17
9933.5	42.579
12010	36.878
13376	37.216
13347	46.39
11722	60.415
8730.2	75.591
5041	90.244
2796.5	102.2
4990.7	115.43
7595.2	125.99
9012.4	135.09
8950	138.77
7507.4	134.45
5059.8	121.21
2205.8	100.45
1563	72.67
3837.8	43.186
5536.4	18.682
6323.2	24.739
6188	43.932
5308.6	59.816
3955.3	72.111
2451.5	79.906
1065	85.147
432.28	88.865
979.57	88.955
1295.1	87.092
1289.4	84.646
1079.4	80.951
846.77	80.056
944.07	80.623
1436	81.933
2076.5	82.365
2713.8	80.895
3218.4	77.078
3483	71.568
3398.3	64.661
2939.3	57.28
2108.6	51.971
1040.4	50.01
695.87	50.804
1853.8	52.469
2998.3	50.22
3853.5	43.932
4331.5	33.287
4377.3	20
4036.6	14
3363.5	21.095
2473.3	29.069
1546.8	31.575
1130.8	31.016
1815.2	34.655
2892.7	46.174
3976.5	62.394
4895.9	78.924
5553.5	89.471
5855.3	90.427
5752.8	81.468
5241.5	65.008
4379.9	43.139
3283.1	26.401
2123.8	30.083
1153	43.174
934.11	52.773
1296.5	54.12
1543	49.163
1573.8	38.013
1554.3	23.707
1758.5	9.0554
2222.2	4.1231
2752.8	12.649
3164.7	18
3429.6	20.616
3646.3	20.616
3981.4	18.248
4536.1	15
5210.2	14.318
5783.2	20.881
6046	33.121
5840.2	44.777
5150.8	53.935
4030.3	58.728
2631.4	56.045
1142.4	47.802
249.23	34.655
1336.6	18.788
2050.4	8.9443
2391.1	18.111
2422.6	28.178
2315.8	33.838
2261.3	34.015
2348.5	28.653
2509.6	20.809
2609.1	12.083
2582.8	10.63
2386.7	17.205
2039	24.187
1582.4	30.529
1097.2	34.785
762.67	37.162
853.59	38.079
1159.3	36.056
1380.2	31.765
1400.7	26.249
1171.1	19.313
722.53	15
140.07	13.342
539.56	14.866
1121	17.889
1536.1	19.235
1730.6	22
1708.3	25.495
1520.9	30
1300.6	36.222
1196.6	42.485
1222.7	47.413
1228.3	50.99
1111	51.225
822.78	49.163
416.17	45.607
263.13	42.953
685.86	41.629
1068.4	42.942
1276.7	45.354
1291.9	45.277
1123.6	43.012
833.78	36.249
491.59	26.401
222.52	15.652
285.78	8.544
439.95	11.705
523.99	18.028
543.96	20.616
513.47	19.849
466.15	16.125
394.51	13.892
308.01	16.643
268.42	22.136
343.14	27.074
471.48	29.155
560.89	28.653
572.72	25.02
476.38	20.809
294.5	15.811
117.55	11.705
279.4	8.6023
487.91	8
607.98	7.2111
620.82	7.6158
516.4	7
342.08	5.831
190.26	3.6056
6845.4	77.878
7642.2	78.23
7876.5	80.156
7453.7	83.187
6461	84.214
5203.7	82.006
4336.4	73.682
4547.9	59.464
5592.3	39.825
6757.3	18.868
7687.1	17.464
8391.2	36.878
9134.2	53.151
10142	61.847
11386	61.294
12513	56.586
13078	52.202
12721	57.559
11300	73.756
8984.3	92.071
6372.7	108.23
4849	119.94
5671.3	126.91
7336.4	129
8329.1	127.14
8101.1	121.6
6608.7	112.31
4142.9	99.126
1332.2	83.024
2083.9	64.661
4396.6	44.418
5839.9	23.345
6227.5	7.0711
5650.6	22.091
4479.8	42.059
3289.3	59.464
2686	72.691
2657.2	80.623
2491.4	85.381
1798.1	88.549
585.5	93.408
910.12	100.7
2347.2	109.44
3443.7	115.25
3997.8	116.39
3955.6	109.38
3393.6	97.062
2513.9	81.025
1502.1	63.411
563.24	48.01
574.12	35.847
1349.6	30.48
2047.7	34.015
2486.6	44
2511.3	53.535
1980.3	60.407
905.53	61.465
978.72	57.009
2771	51.108
4506.2	47
5776.7	48.374
6257.2	50.537
5786.8	50.359
4370.9	47.802
2202.7	49.244
405.8	61.131
3011	79.925
5276.3	99.202
6896.2	111.52
7732.9	113.14
7808.1	104.24
7247.8	86.052
6264.2	64.537
5057.1	46.84
3782	40.311
2555.4	41.869
1588.8	42.297
1433	36.069
1951.9	25.298
2413.4	15.524
2523.8	15.811
2246.1	21.541
1667.7	25.318
1003.4	22.804
488.1	17.72
365.94	17.029
735.01	22.136
1594.9	28.601
2879.2	34.059
4360.7	36.797
5772.7	40.608
6821.4	45.277
7311.9	51.662
7143.7	55.803
6348.7	56
5082.7	51.108
3637.7	41.881
2436.1	30.806
2078.9	21.095
2540.5	16.763
3133.4	18.385
3519.3	21.19
3628.6	23.345
3458.1	24
3022	24.331
2380.2	24.698
1628.4	24.413
1099	21.932
1196.2	20.616
1623.5	20.809
1962	25.08
2108.7	29.069
2140.5	32.696
2204.3	34.67
2355.6	34.059
2482.1	31.828
2449.3	29.069
2183.6	26.249
1737	22.091
1329.6	17.692
1309.5	14.036
1648.5	13.038
2001.9	13.601
2156.4	15.556
2087.8	18.385
1826	24.083
1459.1	32.28
1059.2	41.11
687.1	48.703
376.7	53.151
364.54	54.452
605.41	51.788
827.9	46.53
895.19	40.162
757.53	37.121
426.36	36.688
101.14	38.484
571.85	39.825
1023.4	40.2
1300.6	37.802
1351.8	33.242
1171.3	25.71
814.01	18.601
456.92	12.083
499.12	13.342
779.01	18.788
963.25	23.77
966.53	24.759
796.49	21.587
530.59	15.133
248.23	8
127.05	11.402
208.15	20.125
267.88	29
303.06	33.615
374.19	34.438
431.34	31.257
426.52	25.456
330.85	18.248
193.21	10.296
270.22	4.1231
474.66	2
612.64	5
626.13	7.0711
483.87	7.2111
216.72	6.7082
6518.5	44.688
6222	74.632
5869.8	104.48
5388	124.91
4806.1	131.18
4199.2	122.53
3607.3	101.55
3072.5	73.082
2835	48.662
3385.8	44.272
4914.6	56.639
7059.3	66.91
9395.8	68.242
11549	61.814
13187	49.406
14054	34.928
13998	25.08
13080	21.932
11524	24.839
9805.9	37.947
8546.3	61.522
8173.6	92.195
8414.6	123.69
8591.8	150.62
8175.8	168.81
6965.3	174.26
5065.7	164.35
2850.8	142.03
1571.1	107.63
2847.7	68.029
4258.5	36.139
4918.7	38.118
4717.4	58.31
3761.1	69.376
2411.1	67.119
1665	51.157
2439.9	26.42
3407.1	17.889
3823.8	48.083
3522.7	79.12
2652.2	106.45
1801.5	129.45
2223.4	149.31
3448.3	164.2
4431.9	174.87
4784.9	175.78
4354.5	165.42
3231.6	142.71
1681.3	108.42
1035.8	68.884
2446.7	37.216
3691	46.011
4267	74.324
4018.2	98.27
2962.9	113.7
1278.7	122.02
771.15	125.8
2857	126.92
4642.4	125.36
5839	118.51
6278	108.23
5896.9	96.835
4777.2	91.679
3073.1	96.13
1172.6	104.81
1591.4	111.2
3537.6	108.72
5222.2	96.747
6424.5	76.368
7049.6	52.393
7091.8	32.062
6609.2	27.019
5694	35.903
4484	45.343
3127.2	52.086
1797.6	56.613
671.3	61.4
716.23	65
1342.6	65.742
1730.2	62.097
1826.3	52.431
1702.4	39.013
1456.4	26.401
1199.3	22.825
1060.9	28.284
1144.9	34.205
1537.7	34.785
2234.9	31.145
3197.9	29.069
4284.2	37.656
5348.3	54.083
6204	70.711
6679.8	80.957
6667.4	83.774
6131	77.369
5092.3	62.37
3696.9	41.231
2242.7	18.111
1446.5	5.3852
2080.6	20
3001.1	26
3598.1	24.413
3750.2	14.765
3489.2	4.1231
2928.5	16.492
2208.3	26.683
1505.7	31.145
1031.3	27.203
988.49	15.133
1233.6	6.7082
1543.3	24.352
1835.4	41.037
2071	51.788
2213.6	55.036
2223.4	49.244
2097.8	37.336
1854.9	21.26
1548.4	6.7082
1281.2	7.0711
1146.1	11.402
1200.5	9.8489
1359.2	11.402
1530.2	23.087
1673.9	38.013
1755.9	50.448
1768.9	56.223
1692.4	55.036
1525.1	45.793
1256.8	32.65
922.88	18.682
573.65	18.601
354.52	30.463
455.2	43.932
614.73	55.606
668.58	64.382
582.77	71.701
403.09	73.246
332.66	71.589
557.47	64.125
831.32	52.498
1015.8	38.833
1048.6	27.203
913.23	20
669.6	18.028
434.76	16.279
505.4	13
763.08	16.031
962.66	24.597
1020.3	32.696
915.24	36.401
695.28	33.615
436.25	24.352
251.53	12.207
303.45	17.117
392.19	32.802
375.53	46.39
267.97	53.151
88.363	52
130.55	43.863
299.02	32.062
392.82	20.616
411.05	19.235
350.02	24.839
233.02	28.071
120.54	27.203
135.53	22.472
6109.9	73.926
5990.4	79.812
5803.2	86.023
5494.7	90.139
5039	92.455
4487.6	92.179
3828.7	85.053
3137.8	73.062
2840.9	54.708
3670.7	41.037
5476.1	46.519
7720.9	65.62
9948.2	83.6
11820	91.984
13085	91.066
13580	82.765
13275	75.166
12312	74.33
10983	79.404
9700.8	80.156
8872.6	72.402
8592.1	62.225
8567	67.179
8354.1	97.201
7646.7	134.85
6370.4	166.76
4692.3	183.22
3026.7	181.18
2339.3	160.08
3060.8	129.25
3950.7	101.26
4330.4	95.131
4048.7	108.66
3181.3	124.68
1921.3	129.69
858.83	117.63
1494.1	93.52
2493.3	61.205
3096	44.011
3219.1	70.029
2963.9	113.21
2661.1	156.54
2746.4	195.66
3267.3	226.93
3843.1	244.77
4102.8	248.47
3839.5	234.54
2995.1	206.25
1664.4	169.05
121.4	131.53
1636.6	111.62
3031.4	118.21
3882.7	140.53
4005.1	165.34
3350.4	183.15
2038.1	192.85
1009	193
2478.8	184.95
4353.2	170
5771.4	152.2
6427.8	135.52
6208.5	125.03
5123.9	121.92
3359.1	121.2
1236.5	117.14
1252.6	104.56
3290.3	80.802
4974.1	49
6150.7	15.524
6804.5	25.08
6990.6	54.672
6743.1	76.026
6098.2	89.499
5090.9	93.648
3762.6	92.455
2267.4	90.2
996.63	84.865
1341.1	79.025
2255.6	68.015
2778.2	54.452
2782.5	39.357
2334.6	28.284
1628.6	31.064
905.3	40.05
403.58	45
184.29	44.911
699.34	41.629
1763.1	40
3183.8	46.53
4718.1	58.31
6083.8	68.447
7025.6	73.756
7359.8	69.354
7031.6	59.034
6102.2	42.202
4727.2	23.409
3132.5	13.454
1574.2	20.248
705.27	26.627
1483.7	26.019
2362.8	20.616
3003.2	17.205
3390.1	24.352
3508.7	35.114
3345.9	42.154
2905.8	42.048
2262.5	35.468
1554.2	26.173
969.05	25.962
810.1	39.623
1010.8	53.085
1252.4	60.141
1532.6	58.694
1869.9	48.765
2232.5	32.311
2495.7	12.53
2551.2	10.44
2337.1	26.571
1895.5	37.577
1355.2	42.72
1058.4	43.829
1288	43.932
1714.3	45.453
2038.5	47.096
2165.2	45.607
2107.4	39.294
1895.8	25.71
1588	11.18
1220.9	18.385
834.2	38.013
500.9	55.009
408.26	66.038
558.34	69.771
670.91	68.118
639.14	61.294
463.06	52.326
252.62	42.107
400.28	33.287
706.56	27.313
918.85	24.331
987.41	24.042
889.1	23.195
700.25	23.259
584	21.095
674.85	17.117
857.12	12.166
947.5	9.0554
913.46	11.045
756.45	15.297
537.89	17.205
374.17	15.232
367.18	10.05
412.91	1
375.35	10.44
241.91	20.248
75.432	28.844
147.05	35.057
280.75	36.797
341.41	34.366
304.21	29.411
209.06	23.087
132.1	17.804
195.72	13.892
280.22	15.133
275.88	16.155
201.73	16.643
8182	73.824
7616	91.679
6671.6	98.955
5519.2	94.149
4304	80.802
3205	62.968
2289.3	47.434
1636.5	41.304
1896.2	41.231
3436.1	41.869
5674.1	45.398
8212.9	52.839
10684	66.483
12759	81.345
14124	94.372
14586	105.95
14109	114.53
12826	120.81
11025	121.25
9076.9	112.26
7432.9	90.255
6407.6	55
6029.6	24.187
6092.2	64.622
6301.3	120.15
6526	167.29
6674.3	200.26
6705.8	210.72
6604.1	201.64
6401.1	174.43
6139.1	144.25
5813.1	126.27
5346.1	130
4662.8	144.81
3778.4	150.92
3035.5	140
3091.5	112.45
3918	75.24
4815.2	59.034
5262.8	93.862
5025.4	143.75
4110.5	187.2
2732	218.23
1409.1	233.21
1477.8	234.17
2340.6	220.95
2778.8	199.32
2651.9	169.84
2272.4	137.44
2325.5	105.69
3042.4	84.345
3870.2	84.054
4320.6	103.87
4318	131.24
4085.5	156.59
4183	173.63
4881.5	181.73
5864.5	179.18
6596.9	168.51
6741.4	153.65
6208.1	142.72
5102.2	139.09
3725.9	141.35
2506.5	144.1
1938.7	140.06
1930.6	126.19
2010	100.46
2240	65.795
3013.6	29.411
4208.7	25.08
5439.8	58.31
6315.5	87.556
6620.3	108.47
6272.3	118.71
5327.2	118.93
3970.2	112
2435.9	98.311
1068.1	82.006
771.72	65.192
1419.4	50.99
1850.3	41.437
1997.6	36.235
1976.7	34.366
1938.6	32.65
1991.4	32.202
2236.8	31.78
2709.5	33.015
3417.8	36.878
4252.8	40.719
5058.1	45.486
5688.8	49.092
6009.5	53.666
5976.3	55.471
5578.7	54.083
4885.7	47.885
4024.6	37.59
3151.6	24.083
2395	7.8102
1874.7	6.0828
1699.5	18.358
1851.4	26.926
2184.3	31.78
2561.9	33.526
2835.8	35
2898	38.013
2676.6	41.049
2169	44.598
1482.9	48.083
975.17	51.614
1266.8	56.08
1918.2	60.141
2442.9	63.198
2686.9	61.717
2631.1	56.143
2326.2	45.453
1888.5	32.016
1422	23.022
1033.7	28.16
797.39	42.802
818.8	55.444
1140.8	63.032
1619.6	64.125
2097	59.076
2440.2	48.703
2538.8	34.482
2383.2	17.804
1969.4	1
1374.2	15.811
707.82	30.083
192.75	40.608
437.79	46.861
686.34	49.769
721.37	50.04
588.56	49.244
402.78	48.104
364.59	49.193
472.43	50.249
543.31	50.596
498.45	48.083
348.53	43.681
247.15	36.139
394.34	26.907
624.12	17.117
818.65	8.0623
928.76	1.4142
989.02	7
999.21	10.63
967.05	14.142
876.28	15
720.62	15.133
501.65	14.213
243.31	12.042
139.95	11.705
348.21	14.866
512.4	21
569.38	26.249
533.88	30.594
422.61	32.696
297.83	32.45
237.92	29.017
268.48	22.825
284.3	14.765
262.62	6.3246
210.8	3.6056
181.29	9.434
209.47	13.416
7961.6	57.009
7270.6	73.539
6317	81.345
5249.1	82.098
4211.5	75.644
3334.8	65.947
2747	57.009
2551.2	53.712
2782.8	56.321
3531.8	58.138
4834	57.983
6639.8	53.141
8778.7	50.606
11003	57.428
13004	75.822
14440	99.141
15049	119.87
14687	132.08
13334	134.03
11204	122.12
8659.7	95.441
6240.8	57.009
4634.3	24.759
4262.7	59.304
4624	110.46
5123.3	155.33
5734.1	187.17
6598.2	203.42
7627.4	203.9
8463.4	190.38
8774.2	172.63
8337.3	158.23
7252	153.16
5883.3	154.24
5007.8	151.99
5244.9	140.9
6166.8	116.9
6906.2	89.805
7003.3	80.112
6353	104
5120.3	143.01
3564.2	179.4
2130.1	204.66
1565.3	217.19
2192.4	218.02
3089	207.08
3896.1	188.92
4549.7	164.68
4975	135.53
5086.2	105.11
4892.2	84.315
4514.3	89.805
4297.1	119.95
4497.6	156.21
5058	185.42
5636	202.09
5922.4	205.24
5801.1	196.71
5286.3	181.11
4522.1	163.05
3680.9	149.59
2962.1	141.21
2516.7	135.06
2430.3	126.14
2658.8	111.46
3055.7	92.195
3428.6	69.642
3704.4	45.044
3877.9	20.396
4048.2	13.038
4343	33.615
4743.2	57.315
5086.1	78.549
5162.1	96.026
4856.7	107.81
4161.1	111.83
3204.9	108.46
2322.7	100.62
1868	88.233
1886.2	77.078
1917.7	68.476
1674.5	62.394
1210.8	59.548
988.77	57.723
1431.7	58.31
2051.4	59.059
2561	58.941
3020.1	55.902
3564.7	48.754
4300.8	37.014
5102.3	27.659
5741.1	27.295
6024.7	37.947
5849	50.21
5246.3	55.543
4329.9	54.781
3308.4	47.011
2413.7	32.28
1826.8	19.105
1624.7	19.105
1759.8	32.573
2127.4	44.418
2583.6	52.173
2924.5	55.218
2987	54.148
2671.1	54.562
1964.5	56.515
992.01	62.241
375.3	67.543
1287.3	72.111
2070	73.41
2490.6	69.354
2525.9	61.4
2267.5	50.249
1891.2	37.108
1654.9	25.298
1665.7	21.633
1741.3	28.653
1746.1	37.643
1656.2	45.541
1620.3	51.225
1756.7	53.759
1993.1	52.811
2173	47.381
2193.5	37.643
2015.2	24.187
1691	8.9443
1315.9	9
946.54	25.71
692.54	39.205
538.21	50.09
492.44	55.036
534.65	54.424
614.83	51.088
655.35	46.615
598.33	44.777
452.75	46.098
220.66	49.092
59.034	50.16
240.17	48.166
355.93	41.231
400.08	32.016
478.15	19.799
678.03	8.0623
947.85	4.1231
1174.9	12.207
1283.6	17.088
1228.4	18.439
1001.5	17.029
645.42	13
254.61	10
179.69	9.434
435.17	13.038
560.44	17.205
545.83	21.932
413.71	24.083
275.79	27.459
288.82	27.785
395.14	28
435.58	25.554
361.02	22.361
224.13	17.263
30.083	12.207
153.33	8.9443
290.26	10.05
332.42	12.207
7059.3	48.384
7316.5	62.032
7129.8	77.104
6464.4	85.604
5431.8	85.165
4219.1	72.56
3086.8	52.773
2671.5	30.232
3450.7	23.537
4944.4	33.734
6612.1	43.186
8186	51.157
9547	63.655
10666	86.093
11587	111.2
12340	132.44
12871	143.25
13046	139.45
12665	121.56
11618	91.924
9906.7	56.859
7747.1	26.476
5599.7	36.235
4266.1	66.219
4371.5	96.005
5287.6	123.07
6172	147.63
6862.5	166.51
7478.8	180.24
8102.8	186.46
8648.6	188.16
8867.8	186.76
8583.9	183.66
7803.7	178.47
6827.1	167.76
6206.6	149.16
6301.3	129.02
6875.7	114.79
7254.4	120.07
6993.7	143.41
5935.6	167.29
4187.4	183.7
2054.3	187.43
1047.9	181.91
2745.5	173.28
4229.3	168.19
5034.5	167.59
5131	167.5
4668.5	159.52
3951.2	144.97
3438.8	129.02
3489.1	125.25
4000.4	141.89
4602.7	167.91
5047.7	191.64
5241.5	203.77
5195.5	203.74
4964.9	191
4636.5	171.06
4316.7	148.79
4069.1	130.55
3892	118
3740.7	111.22
3550.6	109.66
3318.8	109.59
3133.8	105.57
3097.5	94.366
3264.3	74.953
3529.2	48.021
3785.5	27.514
3958.1	43.012
4036.1	72.918
4048.9	96.338
4009.4	111.4
3928.6	114.02
3794.2	108.3
3564.8	97.529
3282.6	84.646
2910.4	71.063
2432.7	58.941
1853	46.4
1157.7	38.897
398.05	43.738
520.89	56.727
1250.2	71.449
1825.3	80.709
2186.3	82.28
2380.9	77.473
2597.8	66.641
3045	50.961
3753.8	32.249
4539.2	11.18
5165.3	12.083
5475.8	33.541
5369.9	52.154
4860.1	65.146
4080.6	69.462
3265.4	63.561
2713.3	51.478
2637.8	38.013
2839.5	40.025
3010.1	56.727
2962.6	73.682
2675.6	83.241
2190.8	84.291
1624	78.102
1092.2	71.197
790.68	68.425
873.5	70.774
1115.1	73.926
1308.1	73.246
1373.8	65.795
1305.2	54.12
1162.1	39.319
1080.3	26.401
1204.1	14.213
1506.4	3.1623
1862.1	11.402
2144.5	28.636
2308.3	46.325
2337.2	61.847
2256.1	69.857
2086.2	70.114
1869.7	60.539
1633.8	42.72
1378.6	19.026
1126.4	4
888.55	24.839
687.22	38.91
522.3	47.17
395.3	48.836
286.09	47.539
214.98	47.508
225.14	49.82
309.25	51.74
402.6	51.884
430.5	49.477
411.42	45.044
358.62	41.437
339.45	38.275
427.71	35.805
583.88	31.064
734.98	23.087
852.05	13.038
921.74	7.2111
927.15	13.416
880.26	19.313
783.78	21.19
636.48	20.248
465.15	16.763
302.11	14.56
174.18	16.279
176.1	19.105
250.86	20.125
308.88	20.616
329.01	19.698
324	21.587
317.42	24.083
300.27	25.942
281.79	26.077
252.3	25.02
195.21	21.932
131.22	18
79.006	16.401
97.185	15.524
156.16	15.264
6670.6	22.361
7170.4	23.409
7389	57.974
7258	88.64
6778.9	107.54
5999.2	108.56
5109	93.434
4488.9	60.671
4735.7	21.633
5908.7	34.015
7525.4	78.848
9117.1	115.95
10396	141.82
11211	154.87
11555	152.74
11540	138.45
11304	112.7
11003	80.455
10634	46.53
10088	23.409
9217.1	31.113
7934.4	42.942
6315.3	39.013
4743	17.029
4098.2	22.804
4966.8	74
6528.6	132.02
7955.5	187.13
8879.8	230.23
9214.4	254.8
9030	257.73
8532.6	238.9
8009.1	201.59
7703.7	155.19
7674	107.82
7758.5	71.805
7756.4	62.241
7430.6	76.164
6746.5	100.21
5707.9	128.41
4412	157.32
3039.2	182.73
1886.3	199.65
1552.6	203.3
2156.2	193.76
2917.4	171.21
3528.6	143.66
3946.6	118.38
4166.1	103.1
4236.7	102.42
4211	112.41
4184.1	128.06
4212.9	148
4354.9	171.23
4574.7	194.59
4828.4	213.33
5017.9	223.09
5094.5	219.92
5034.9	202.83
4852.6	175.51
4591.2	140.73
4277.2	108.24
3941.4	90.758
3596.2	94.366
3244.3	105.38
2939.3	110.8
2723.8	105.95
2663.6	89.32
2783.2	70.605
3016.1	65.605
3271.2	82.855
3497.8	107.22
3683.4	125.25
3850.1	129.62
3993.5	119.42
4117.2	98.615
4118.6	73.593
3947	53.263
3528	49.82
2851.2	56.365
1935.6	60.133
922.18	57.983
463.43	57.315
1226.1	64.413
1859.5	78.924
2171.9	94.372
2205.6	102.39
2158.1	99.156
2387.5	84.593
3012.4	60.902
3813.9	31.623
4510.3	10.05
4917	31.575
4965.8	52.01
4678.2	65
4157.5	68.411
3604.8	65.307
3188.3	59.076
3013.4	53.151
3000.1	51.856
3020.4	55.785
2981.9	62.169
2853.9	68.352
2623.8	73.007
2278.8	77.253
1804	81.86
1198.3	85.165
590.79	84.629
666.2	80.025
1284.8	70.803
1800.5	57.009
2063	41.437
2002.2	27.459
1651	17.029
1122.6	13.416
835.28	15.133
1245.5	21.633
1859.1	32.558
2349.8	46.755
2581.2	57.315
2547.8	64.885
2281.9	64.413
1858.7	56.436
1438.2	43.139
1161.5	28.018
1126.9	17.493
1213.6	15.62
1260.5	17.029
1193.5	14.866
992.67	13.153
742.17	21.024
541.35	34.713
554.37	45.222
698.86	49.244
811.45	46.098
805.01	34.482
646.33	20.881
374.51	19.647
27.586	34.482
335.97	48.166
636.23	54.708
837.15	52.839
905.12	43.046
849.91	27.803
721.84	13
608.53	10.296
599.89	20
669.79	24.413
728.09	24.166
699.76	18
585.55	12.042
422.83	11.402
292.74	17.263
342.71	22.804
460.33	25.612
537.28	27
538.85	26.249
475.79	26.306
365.03	24.187
246.17	21.471
166.64	17.029
128.82	13.153
136.97	12.369
122.54	14.318
93.941	16.279
76.922	16.279
5896.4	40.311
5589	28.425
5474.8	37.443
5726.8	65.069
5975.3	92.201
5757.7	109.73
4793.9	110.86
3305.9	91.548
2752.5	56.036
4540.7	25.71
6945.1	66.94
8914.3	120.21
10053	163.25
10371	185.61
10204	184.72
10094	160.8
10429	119.54
11062	70.803
11494	33.838
11249	44.643
10156	62.201
8342.7	61.984
6305.6	38.897
4962.3	2.8284
5201.2	56.08
6492	112.51
7839	164.21
8787.7	203.31
9240.6	226.76
9185	234.05
8694.9	225.21
7887.9	204.08
7077	175.87
6738.4	143.59
7133.7	113.53
7987.2	94.069
8729.2	90
8902.2	100.9
8289.4	116.71
6913.8	133.73
4983.5	148.95
2860.9	162.79
1266.5	173.85
1783.1	179.28
2825.2	177.78
3455	167.8
3705.1	151.43
3795.2	132.28
3883	117.07
3986.4	110.42
4036.7	115.49
4041.3	127.61
4141.4	145.52
4434.5	165.6
4904.9	187.83
5326	208.02
5508.7	220.81
5408.5	220.95
5100.1	207
4795.6	179.37
4693.8	143.56
4759.1	109.6
4796	90.554
4581.1	93.059
4034.2	104.81
3292.1	109.66
2694	102.08
2659.9	86.977
3143.1	69.354
3668.3	67.067
3934.7	82.329
3887.6	104
3634.3	118.98
3411.1	123.88
3387.4	117
3542.9	100.22
3649.5	76.368
3520.2	53.254
3075.4	41.869
2340.5	48.166
1427.9	58.181
678.02	66.37
902.34	69.311
1439.6	73.027
1696.7	81.32
1623.7	93.086
1329.6	100.8
1256	102.2
1794.1	92.027
2607.5	72.422
3356.8	45.177
3849.1	20.616
4018.2	29.155
3872.5	52.802
3527.7	69.065
3140	76.059
2873.6	72.719
2756.7	64.031
2691.5	49.739
2587	36.056
2436.1	29.206
2339.7	36.222
2414.9	52.402
2605.6	70.711
2744.9	86.006
2671.4	97.417
2318.2	100.24
1741	95.771
1106.3	84.077
830.92	69.231
1135.3	52.631
1442.2	38.118
1496.6	26.907
1257.3	16.279
823.15	8.9443
578.38	19.105
996.83	35.468
1548.5	50.636
2003.1	60.877
2283.3	65.97
2436.4	64.622
2487.8	58.31
2449.7	47.676
2345.4	38.601
2159	31.401
1937.2	26.401
1732.5	21.024
1586.5	13.342
1483.9	11.045
1293.1	18.682
953.26	29
452.35	36.77
197.99	41.037
770.16	39.217
1236.9	33.061
1457.8	22.472
1372.5	10.198
999.4	13.454
448.95	27.019
401.97	37.947
970.04	46.271
1395.4	47.707
1559.5	42.942
1428.5	34.059
1103.2	21.932
783.62	11.402
790.21	12.369
1042	18.385
1204.6	20.396
1128.6	18.439
840.1	11.402
395.03	7.2801
155.71	17.029
573.37	27.203
862.39	34.713
957.98	37.336
875	35.228
686.79	28.844
497.61	21.095
430.29	13.342
435.5	8.2462
390.15	8.544
319.13	10
344.85	12.207
493.74	14.318
629.97	16.125
5250.7	48.836
4197.5	64.031
2727.8	74.465
2173.3	78.518
3013.4	76.922
3661.5	67.72
3322	54.406
1892	39.56
764.71	39.013
3349	59.682
5902.8	88.645
7712.4	116.04
8388.2	137.77
7877	149.05
6608.7	147.87
5739.9	134.09
6467.7	109.48
8191.9	78.447
9594.6	47.011
9954.4	25.495
9063.7	28.302
7152.9	41
4782.9	55.973
3176	76.844
3715.4	102.96
5116.3	130.92
6243.6	154.51
7081.8	170.04
7980	174.14
9107.3	170.39
10281	163.69
11084	160.1
11220	163.27
10568	170.24
9250.5	176.08
7642.1	174.64
6254.3	164.27
5582.8	146.73
5604.8	124.46
5797.7	102.93
5695.8	87.784
5167.3	89.588
4234.1	106.28
3089.6	131
1918.7	151.21
872.49	161.2
176.12	155.5
931	135.53
1955	109.2
3234.6	98.489
4655.4	122
6003.8	166.01
7055.3	207.45
7606.4	237.19
7568.8	249.02
6990.8	242.87
6066.7	220.74
5125	189.47
4509.8	155.26
4276.2	123.13
4126.5	96.835
3747.3	77.104
3014.8	64.637
1992.8	59.059
1015.3	60.083
895.83	67.119
1456.6	77.492
1761.3	87.784
1676.4	97.494
1309.4	105.19
1031.2	109.93
1258.9	111.22
1734.3	106.21
2096.2	97.739
2231.1	83.361
2124.6	67.007
1833.8	50.774
1500.7	36.77
1338.2	32.696
1596.5	36.249
2152	45.607
2726	57
3084	70.838
3085.5	84.959
2633.3	98.793
1739.4	108.05
510.12	110.75
896.56	105.26
2213.7	92.612
3235.9	75.273
3791.2	60
3764.9	58.052
3207.3	66.851
2234.1	75.584
1047	78.549
423.76	71.47
1303.5	57.689
1929.8	38.013
2110.9	19.723
1830.1	11.18
1179.3	20.881
333.54	36.892
786.3	56.515
1711.6	80.455
2455.9	104.24
2901.7	122.58
3002.5	131.14
2774.1	127.64
2270.8	111.68
1626.3	84.865
1054.4	51
869.97	17
1035.1	18.028
1123.9	43.012
976.69	58.6
678.03	66.483
661.11	65.924
1145.5	60.415
1691.6	50.596
2064.1	36.056
2170.9	19.235
2001.4	14.213
1603.5	33.971
1111.3	54.12
722.76	68.007
730.79	73.246
954.39	67.742
1100.5	53.6
1119.3	34.54
1013.9	26.926
855.23	41.593
691.3	58.592
583.95	68.949
551.92	69.778
577.73	63.561
606.78	53.935
582.28	48.826
504.96	52.839
407.59	61.294
426.55	67.897
585.8	67
761.46	60.108
836.96	48
768.43	32.65
563.71	19.313
300.67	12.083
308.8	16.553
598.58	23.022
830.17	27.019
926.02	28.862
884.47	28.636
718.92	25.08
481.88	19.647
257.26	10.63
91.351	8.2462
15.811	18.788
106.67	30.463
251.13	38.484
420.96	41.761
562.72	39.408
617.07	32.016
567.67	18.439
414.08	3.1623
197.85	12.166
62.032	25.495
235.26	33.242
2924.4	50.99
3549.5	65.765
3813.3	76.217
3614.2	78.09
2914.7	72.18
1747.3	62.514
1103.1	54.562
2834.2	55.326
5045.1	67.424
6996.7	82.219
8246.3	95.603
8455	105.85
7458.3	112.75
5317.8	115.43
2323	115.87
1075.5	112.45
4227.2	104.4
6636.2	92.698
7882.3	74.465
7808.4	51.4
6503.4	23.77
4352.5	19.313
1906.7	54.818
666.56	93.622
1877.3	128.16
2141.1	156.21
1274.6	173.16
1207.8	177.54
3713.5	168.67
6484.2	152.11
8878.9	134.06
10474	125.6
11100	133.46
10822	151.73
9980	172.28
8994.9	183.76
8224.6	184.61
7637.3	171.4
6962.8	146.49
5944.5	117.64
4623.5	97.268
3428.5	102.49
3107.9	127.1
3633.3	153.55
4110.9	169.58
4011.6	169.01
3293.3	150.79
2477.1	120.03
2792.7	89.269
4257.5	85
5790.1	118.21
6860.1	161.6
7209.9	199.04
6794.1	222.63
5720.4	231.14
4249.3	223.99
2788	206.2
2090.8	182.4
2517.2	155.27
3174.1	130.51
3490	107.71
3326	88.617
2749.2	73.007
1867.7	64.405
875.74	65.605
105.44	74.626
749.45	88.544
1116.8	101.08
1105.7	108.24
754.94	112.33
300.6	111.22
755.15	106.89
1452.7	100.17
1984.1	89.14
2222.6	75.769
2112.4	60.877
1722.6	47.202
1386.4	39.408
1656.7	38.419
2420.7	41.4
3179.6	46.043
3654.8	53.339
3687	66.31
3254.2	83.024
2388	99.639
1249.3	112.07
508.77	116.3
1520.1	111.22
2538	97.309
3223.3	80.895
3507.1	67.268
3368.3	63.64
2896.9	69.116
2202.2	73.756
1458.4	73.246
1038.2	66.121
1269.2	51.478
1689.6	34.67
1931.5	18.788
1847	19.105
1416.4	33.015
718.72	49.163
617.89	67.417
1549.6	84.504
2463.5	100.42
3116.6	112.81
3368.4	118.71
3175.8	115.83
2592	104.1
1734.8	84
845.21	56.08
548.74	26.42
980.64	5.3852
1198.1	33.422
1049.3	55.362
626.51	68.25
504.91	72.863
1097.4	68.411
1697.7	56.321
2056.2	38.897
2093.7	19.723
1827.9	14.318
1329.6	30.806
755.36	47.508
440.62	58.941
673.77	64.078
917.33	62.61
988.73	55.66
917.04	45.541
794.57	38.897
727.9	43.081
754.87	53.935
809.38	65.605
826.21	71.568
813.75	72.007
800.19	67.268
810.7	60.828
828.4	58.052
840.01	59.093
830.73	63.506
781.31	65.46
683.23	61.465
523.47	51.478
296.38	36.674
86.608	18.601
272.26	5
484.11	17.029
593.22	28.284
574.13	34.366
425.78	33.121
272.09	27.731
397.62	17.464
669.68	6.7082
878.19	6.4031
949.59	17.117
879.62	25.456
689.72	30.414
463	31.78
329.68	29.682
368.45	25
396.35	18.868
314.92	10.77
126.3	2.2361
137.06	6.3246
380.66	13.601
561.53	19.235
2272.2	28.443
3708.9	42.638
4615.9	56.08
4700.5	64.63
3810.7	70.434
1982.1	72.111
555.31	71.309
3413.1	71.589
6081.7	72.56
8072.3	76.485
8996.1	82.928
8650.1	91.269
7120.2	99.005
4804.2	107.17
2843.4	112.06
3579.7	113.78
5582.9	109.48
7025.5	98.489
7465.2	80.1
6921.7	54.203
5723	22.825
4341.7	13.416
3258.2	51.624
2523.5	88.814
1701.6	122.67
585.77	151.65
1764.2	170.14
3945.5	179
6055.8	177.51
7671.8	165.66
8520.1	151.03
8542.7	139.81
7988.9	141.23
7336.1	156.6
7129.6	176.71
7493.6	192.42
8004.6	194.74
8201.7	181.8
7832.6	154.32
6921.3	118.13
5669.7	89.944
4342.9	92.439
3199.4	120.7
2372.6	148.76
1904.9	163.62
1774.8	158.04
1907.6	133.26
2168.8	93.92
2461.9	54.589
2834	59.808
3439.6	104.4
4246.6	148.22
5070	178.93
5630.5	194.54
5685.3	197.13
5108.8	189.52
3921.3	177.78
2373.3	165.53
1223.6	153.67
2046.1	140.46
3262.1	121.8
3985.6	98.433
4047	74
3488.3	61.911
2476.3	70.007
1243.2	91.241
191.4	110.94
990.43	125
1613.7	131.75
1876.1	132.52
1841.9	129.87
1638.9	124.47
1401.2	115.68
1211.5	101.53
1042	83.024
830.31	59.464
506.36	34.132
94.668	14.142
527.5	24.083
1162.1	40.224
1800.6	51.245
2335.9	55.036
2663.9	56.613
2703.4	57.801
2428.6	62.936
1889.9	73.355
1292.4	84.214
1055	94.43
1349.1	100.96
1667.4	103.02
1757.2	100.26
1587	94.726
1347.8	86.093
1316.9	77.621
1518.6	69.462
1652.7	60.44
1518.3	50.09
1061.8	34.015
388.36	14.318
620.53	10.817
1374.4	37.054
1932.1	64.885
2206.1	87.464
2269.6	105.02
2327.7	115.38
2564.1	117.41
2903.2	112.18
3107.2	101.41
2985.4	86.839
2451.9	69.893
1580	50.22
607.31	28.16
805.78	6.0828
1612.5	20.616
2108.5	43.29
2188.3	61.911
1944.9	72.719
1562.2	74.169
1318.9	65.795
1296	49.204
1278.5	25.71
1030.3	6.3246
556.98	28.16
337.93	48.836
894.05	63.702
1353.2	69.857
1493.2	67.543
1273.8	60.539
812.05	51.884
683.62	49.163
1265.1	54.037
1859	61.984
2169.3	68.819
2101.1	71.449
1680.5	70.937
1022.3	68.066
348.31	64.444
417.43	62.201
757.05	62.37
791.96	63.008
529.69	60.308
181.21	55.317
535.11	44.777
951.84	32.249
1135.4	16.492
1032.1	6.3246
665.52	15.652
168.18	24.698
441.78	29.614
857	29.732
1039	25
934.61	16.492
618.43	5
466.21	5.831
837.71	16
1235.3	22.361
1415	27.019
1319.6	26.926
956.7	26.173
428.35	22.361
141.9	18.439
584.74	13.601
805.68	7.2801
768.94	2.8284
488.15	9.8489
88.414	17.493
4812.6	43.932
4446.6	47.676
3890	49.93
3343.1	51.313
3094.8	51.088
3325.7	51.971
3877	54.781
4431.1	62.642
4762.7	74.518
4799.4	87.864
4596.7	99.04
4342.6	107.7
4168.2	114.69
4058.3	122.12
3835	129.29
3410.5	134.18
3140.3	130.38
3781.1	115.75
5337.8	88.837
7104.4	49.477
8444.8	7.2111
8914.9	46.669
8250.2	90.918
6425	126.91
3698.1	152.4
1660.2	168.24
4247.6	175.87
7377.1	178.19
9690	173.35
10751	162.31
10397	145.52
8673	127.48
5923	120.3
2926.6	129.54
2939.9	148.48
5815.4	164.03
8352.4	165.8
9863.8	149.5
10149	115.52
9223.3	71.561
7284.8	38.079
4718.8	57.559
2221	91.198
2158.3	114.34
3926.3	119.95
5124	108.25
5306	84.528
4437.8	51.196
2710.9	14.866
711.38	29.732
2288.3	69.065
4478.6	104.06
6043.6	132.31
6733.7	149.25
6449.4	155.65
5293.4	150.99
3518.5	138.84
1640.9	126.05
1452	117.63
2824.5	112.27
3807.4	105.72
4100.3	90.006
3734.1	65.924
2844.7	38.053
1704	31.113
625.39	55.946
652.27	81.025
1200	96.897
1419.7	105.12
1354.6	109.57
1245.5	115.17
1329.2	122.58
1578.9	128
1766.9	125.63
1731.9	111.41
1419.7	87.784
856.34	58.796
117.48	36.62
731.21	36.222
1522.1	48.01
2170.9	54
2603.8	57.009
2803.3	61.033
2769.1	73.11
2579.7	90.139
2358	106.74
2222.9	116.97
2165	120.34
2106.5	116.87
1903.7	107.12
1485	92.477
842.75	75.604
59.304	60.075
760.55	55.803
1467.7	63.561
1956.3	73.41
2149.6	75.326
2050.9	65.391
1774.3	41.773
1609.6	9.434
1859.7	37.443
2431.4	77.421
3042	111.4
3506.4	131.8
3738.9	137.31
3720.7	129.27
3467.4	112.27
3023.9	93.263
2450.1	77.318
1810.6	65
1242.2	51.884
988.19	32.527
1213.8	6.7082
1571.8	23.022
1818.7	51.894
1857.3	73.878
1691.9	84.172
1333.3	82.225
856.46	66.708
353.96	43.463
147.79	14
472.67	14.422
664.04	38.079
694.72	55.145
605.59	63.159
444.29	63.411
320.12	58.549
338.65	50.537
450.41	43.658
594.05	42.059
734.63	48.508
868.99	58.181
1002.1	67.624
1082.1	73.98
1095	76.059
1026.5	75
874.07	72.346
660.17	69.584
419.5	66.287
200.94	63.891
138.36	58.189
237.66	49.82
299.4	38.471
307.83	25.962
264.2	14.213
225.14	4.2426
255.84	5
348.31	12.042
427.57	19.698
468.59	24.759
451.85	28.231
371.57	26.173
265.69	20.616
216.33	11.045
315.66	10.44
454.58	21.84
565.26	31.016
615.33	35.609
589.96	33.541
496.3	26.683
355.95	17.889
184.48	11.402
59.666	12
150.08	13.342
256.75	10.817
310.1	2
6253.1	18.974
5932.8	21.471
5056.9	47.17
4035.8	79.981
3542.7	108.78
3936.1	125.24
4664.5	125.43
5063.2	107.87
4922.9	79.228
4316.8	60.075
3662.8	75.928
3523.4	107.02
3968.8	129.08
4434.6	133.69
4521.4	121.2
4266.9	93.472
4205.8	60.836
5012	31.385
6527.8	15
8049	5
8985.7	14.866
8986.6	46.69
7897.9	86.406
5817.4	124.26
3090	151.03
1772.1	158.65
4363.6	145.12
7084.3	111.07
9033.9	63.569
9902.8	24.187
9601.4	49.679
8193.3	80.777
6015.1	91.548
3845.7	80.324
3699.6	51.4
5783.9	26.019
8011.3	57.775
9515.1	98.082
9964.4	124.78
9280.2	132.97
7584	119.22
5189.2	92.801
2695.3	66.708
1982.1	67.742
3545.6	91
4775.7	111.43
5051.4	117.99
4301.1	108.12
2679.9	84.38
611.66	55.317
1978.1	39.825
4081.2	55.758
5607.6	80
6322.2	97.622
6156.5	104.71
5215.6	102.04
3799	88.769
2455.4	68.007
2162.5	41.195
2917.6	11.18
3616.2	21.932
3825.2	52.202
3493.5	76.158
2720.1	92.228
1706.7	99.086
676	95.258
336.94	81.271
862.37	60.083
1061.5	32.894
918.58	3.6056
572.65	25.495
504.56	51.74
966.83	72.111
1421.6	84.054
1675.3	88.888
1652.5	83.934
1369	72.069
945.64	53.935
795.87	32.202
1264.4	10.296
1915.5	14.036
2478.3	31.765
2852.5	47.802
2996.1	59.682
2916.6	67.602
2667.9	72.125
2300	70.612
1881.8	65
1476.4	57.801
1123.6	58.6
818.36	72.835
519.57	95.294
193.04	114.28
251.73	125.92
686.33	124.02
1134.7	106.68
1520.3	76.479
1787.4	38.897
1876.6	21.587
1829.9	56.436
1809.7	88.589
2042.4	108.56
2593.7	113.22
3280.2	105.11
3882.1	88.617
4219.2	71.4
4187	61.587
3764.2	63.071
3001.9	66.753
2075.6	65.521
1311.3	58.052
1314.5	46.043
1835.2	37.537
2238.8	36.878
2326.6	40.497
2094.7	44.011
1602.2	43.829
964.91	41.037
333	37.577
258.8	34.234
596.15	29.12
744.78	19.416
704.19	12.042
546.59	24.207
377.75	43.566
300.24	61.741
277.9	74.095
208.24	79
178.9	76.851
419.07	68.942
747.83	58.464
1064.3	49.82
1288.7	46.043
1374.5	46.861
1318.5	53.141
1121.4	61.66
816.15	71.61
462.53	79.158
108.23	83.054
194.82	79.925
405.2	70.214
511.86	55.579
522.35	38.21
459.56	22.204
386.83	15.133
338.66	17.493
339.24	17.263
338.16	12.806
303.91	7.2111
213.72	10.05
139.86	16.553
211.52	20.248
337.76	20.396
435.03	19.698
474.03	22.672
450.73	29.155
389.19	36.235
362.59	40
380.57	38.419
430.84	30.806
454.69	19.235
402.59	7
283.78	8.6023
109.37	16.763
90.139	19.698
269.01	19.235
5961.9	19.416
5573.3	57.201
5404.3	92.704
5707.7	116.97
6202.2	128.06
6444	123.37
6081.7	104.14
5063.5	72.18
3518.4	33.242
1814.9	12.53
1051.5	50.16
2069.3	82.873
3062.6	105.48
3822.8	117.9
4602.4	118.31
5598.9	108.76
6710.8	89.022
7666.9	61.4
8186.1	31.89
8107.5	30.067
7421	64
6218.5	99.282
4681.1	126.75
3051.5	142.17
1950.4	141.82
2758.6	127.26
4602.2	99.045
6481.1	62.682
7951.5	24.352
8675.6	13
8423.2	39.395
7093.4	52.697
4794.9	52.038
1814.9	38.079
1432.2	14.866
4465.2	17.088
6843.6	48.703
8242.4	76.059
8523.6	94.895
7745.4	103.87
6159	102.08
4129.2	92.195
2126	78.492
1242.9	68.264
2099	67.956
2896.5	74.953
3216.4	82.462
3078.8	83.726
2520.7	75.584
1598	61.612
363.4	49.041
1188.1	51.108
2791.4	68.505
4279.8	89.376
5409.2	103.41
5978.6	107.47
5872.1	99.126
5123.3	79.881
3938.6	53.151
2747.6	23.345
2307.5	23.537
2807.8	51.546
3391.2	77.156
3550.9	92.358
3182.5	98.478
2358.1	93.509
1326.3	80.081
526.97	60.407
941.39	35.847
1433.2	13.454
1551.7	20.224
1306	41.725
795.72	61.205
244.38	76.844
555.62	86.4
1056.8	91
1410.3	88.193
1635.4	77.929
1769.1	60.208
1844.5	35.057
1859.1	14.142
1832.6	34.928
1825.8	65
1933.2	88.295
2178.8	101.83
2469.6	102.11
2671.9	88.295
2677.3	65.192
2441.9	43.046
1983.7	48.662
1385	77.885
807.65	104.81
673.89	121.67
1045.2	124.4
1463.2	113.81
1768.4	92.027
1916	64.078
1890.1	42.426
1668.6	42.485
1331.1	55.946
1174.7	67.742
1651.4	73.171
2530.4	73.082
3446.8	70.178
4170.4	67.882
4541.9	67.417
4474.5	67.676
3965.7	66.189
3094.1	62.801
2069.7	58.694
1300.1	56.4
1462.9	55.803
2068.1	54.12
2478.8	50.804
2533.2	45.343
2222.1	38.833
1642.4	33.615
913.62	30.083
197.74	29.069
425.78	28.178
807.23	27.019
948.38	25.06
860.6	25.807
608.11	28.284
292.49	33.106
18.868	38.949
192.51	47.676
214.03	56.586
75.822	65.765
220.66	72.498
595.81	74.887
982.89	74.243
1308.4	69.642
1501.6	64.351
1531.5	59.933
1379.1	58.421
1079	59.908
693.11	63.891
363.98	65.552
411.95	65.115
643.02	62.241
787.35	57.07
773.84	47.927
619.02	37.216
364.32	26.173
85.094	14.866
211.4	5
388.63	3
462.76	5.831
421.88	6.7082
318.6	7.0711
295.58	11.18
421.68	19.209
555.37	25.71
631.05	31.78
627	35.511
569.57	35.014
543.27	31.401
584.36	26.926
662.87	21.024
691.55	14.56
654.27	10.63
512.68	9.4868
320.41	8.0623
211.85	9.4868
343.28	14.142
7573.9	12.166
7916.1	28.844
7614.5	59.464
6845.9	89.811
5860.8	114.13
4963	127.41
4259.8	124.81
3609.6	105.39
2787.5	69.405
1699.5	21.84
1091.4	33.242
2285	85.884
3895.5	128.28
5334.1	155.01
6423.4	160.26
7087.1	144.06
7349.7	108.12
7273.1	59.237
6901	12.649
6288.6	55.362
5486.5	99.905
4671.1	130.97
4144	144.01
4234.7	140.58
4868	122.7
5645.7	94.366
6260.7	62.968
6551.5	35.128
6474.6	14.422
6041.8	10.77
5292.5	15
4243.6	13.342
2993.3	8.6023
1922.3	5.831
2165.3	10.05
3536.4	17.205
4971.7	26.926
6028.3	38.471
6495.5	51.865
6315.3	65.947
5503.9	78.638
4234.5	89.944
2719.5	99.403
1229.9	106.23
415.96	111.04
1164.4	110.04
1696.5	102.34
1906.6	85.615
1912.5	60.828
1860.6	30.232
1861.9	9.2195
1997.9	41.34
2307.3	69.971
2813.6	90.139
3469.5	98.412
4147.9	94.202
4681.1	79.429
4958.1	56.294
4909.9	30.414
4548.1	12.042
3949.1	24.207
3241.4	40.311
2581.9	52.479
2085.7	62.642
1763.6	72.028
1521.7	80.777
1232.9	86.023
849.88	83.006
395.83	69.354
192.52	46.239
605.6	13.038
960.47	24.698
1187.3	63.348
1273	96.26
1224.8	118.3
1100.1	126.85
949.61	118.11
854.52	95.525
883.33	61.774
1047.9	28.284
1343	39.812
1744.6	72.533
2192.2	99.02
2615.1	110.26
2907.6	106.37
2999.8	87.932
2857.2	60.44
2490.1	29.833
1929.4	29.428
1278.1	56.719
634.19	80.411
157.71	94.868
393.73	100.34
649.53	96.187
808.44	86.406
951.17	73.41
1126.1	60.208
1318.5	51.313
1509.9	47.539
1720.2	50.99
2007.2	57.306
2399.2	63.008
2862.6	65.299
3309.1	63.891
3639.7	57.009
3795.6	47.854
3739.7	42.426
3473	43.738
3039.6	51.157
2499.7	59.54
1949.8	64.078
1537.3	65.299
1410.8	62.129
1560.7	57.567
1780.1	52.01
1888.4	46.573
1808.3	40.497
1528.6	33.601
1076.3	26.306
518.58	20.591
67.007	17.464
555.85	19.416
901.83	25.632
1053.7	32.14
1001.1	39.357
787.84	47.424
529.76	55.362
480.88	63.071
721.34	68.425
974.54	71.84
1153.1	72.035
1212.4	68.25
1166.1	64.07
1044.8	58.822
872.42	54.708
680.08	54.009
499.74	56.045
351.88	60.465
259	63.514
238.27	65.924
247.49	63.6
272.89	58.052
328.03	50.329
408.17	39.205
480.13	28.302
527.44	16.643
502.62	7.2801
419.34	2
283.98	5.099
155.21	6.3246
186.4	5.3852
297.25	7.2111
374.42	12.649
392.69	19.416
354.3	27.019
304.73	33.541
292.85	37.443
329.82	38.118
370.55	35.777
389.68	30.529
382.11	22.091
345.86	13.601
294.72	8.4853
225.61	12.806
132.31	20
11.045	26.249
7030	5
7688.5	26
8034.2	57.706
7945.6	86.833
7364.7	108.85
6304.5	117.61
4850.8	113.23
3189	93.231
1647.9	62.097
1312.9	32.558
2294.2	42.048
3230.4	76.368
3879.4	106.51
4304.2	125.96
4655.2	130.91
5048	120.7
5489.4	98.082
5925.4	63.977
6239	24.839
6370.4	22.091
6310.5	63.569
6104.5	101.24
5814	128.04
5506	143
5234.8	142.27
5053.7	127.66
4962.4	102.49
4938.6	69.26
4910.4	35.114
4793	12.083
4563.5	27.731
4221.7	40.46
3851.9	44.418
3578.5	39.812
3523	31.064
3711.3	21.84
4055.7	13.892
4436	8.2462
4735.7	15.811
4848.3	36.401
4705.1	63.655
4273.4	93.048
3567.9	119.34
2640.6	137.06
1613.2	144.27
685.05	137.93
617.26	117.88
1188.4	86.215
1610.1	48.549
1879.1	12.53
2158.9	36.235
2569.1	67.231
3130.4	88.006
3711.6	95.854
4195.3	91.285
4488.1	75.895
4574.9	53.235
4469.1	27.295
4239.2	2.2361
3926.8	18.028
3588.4	32.062
3235	40.608
2871.1	46.819
2480.8	53.235
2059.4	62.482
1614.4	70.178
1139.8	71.386
670.21	65
285.79	50.21
425.38	31.064
776.15	26
1059.1	46.519
1227.8	72.035
1282.5	90.51
1241.3	100.17
1143.6	99.459
1019.7	89.107
928.78	72.18
939.18	53
1102.3	41
1397.4	46.53
1761.1	61.984
2114.1	76.4
2398.8	84.593
2570	84.309
2597.1	74.027
2476.6	54.745
2226	29.155
1888.7	5.831
1494.8	32.757
1086.9	60.008
699.06	79.756
363.41	91.586
206	95.336
387.62	90.824
688.6	82.024
1040.6	72.09
1441.8	65.192
1872.8	61.847
2304.2	61.612
2687.9	62.266
2986.2	62.032
3184.9	58.138
3266.1	50.22
3245.5	38.471
3154.3	23.195
3011.7	11.402
2851.5	20.616
2700	35.609
2555.3	45.88
2416	50.16
2272.8	49.244
2103.1	44.204
1889.7	41.012
1645.5	41.231
1365.7	45.651
1081.1	49.244
817.68	49.366
625.32	45.651
543.78	38.419
555.34	30.364
596.25	25
620.95	22.136
596.82	24.207
518.19	29.069
375.86	37.054
179.23	46.141
58.523	54.083
319.79	61
570.2	64.938
791.37	66.648
949.76	67.897
1034	67.417
1025.4	67.067
939.63	65.62
791.92	65.069
617.82	64.537
454.37	65.391
323.91	67.424
218.25	68.25
101.52	67.417
40.311	62
227.88	52
413.73	38.897
570.29	25.298
654.09	12.042
641.8	1
532.78	5.3852
338.42	8.0623
105.48	7.0711
134.63	5.099
324.82	6.0828
419.57	10.296
417.6	15.62
317.24	21.541
164.37	28.018
119.87	34.785
269.43	39.623
377.94	41.785
408.45	38.328
365.3	30.61
274.03	19.647
223.09	9.2195
278.69	13
335.72	24.166
342.5	31.906
7809.4	33.015
8019.9	43.658
7778.1	57.28
7165.6	68.964
6321.9	78.16
5355.3	82.006
4322.1	82.055
3210.8	79.931
1995.3	80.1
789.2	82.976
1164.2	89.14
2481.3	93.434
3641.2	93.941
4453	89.32
4857.8	79.812
4935.4	67.897
4919.4	54.083
5118.6	42.012
5667.9	33.136
6411.9	32.65
7045.6	44.777
7307.8	64.405
7096.5	85
6429.4	102.18
5471	111.33
4546.8	110.82
4011.8	101.04
4031.9	82.347
4366.2	58
4683.5	33.242
4834.7	15.033
4802.8	19.799
4642.6	30.48
4389.5	35.355
4061.4	36.056
3698.5	37.643
3480.3	44.643
3588.6	55.444
4037.3	68.593
4566.8	80.957
4885.9	89.805
4795.6	96.773
4247.9	101
3359.4	102.55
2365.4	99.358
1661.4	91.782
1498.9	80.056
1467.5	64.9
1095.5	49.649
314.11	38.471
1038.4	36.892
2421.7	42.107
3717.1	48.415
4671.8	52.631
5120.2	53.141
5032.5	51.088
4511.4	47.297
3816.8	42.953
3310.8	40
3253.1	37.59
3497.6	35.057
3704.6	32.696
3694.3	29.833
3428.2	26.683
2984.3	24.515
2464.8	25.239
1960.7	28.302
1536.5	33.015
1272.1	40.817
1178	50.16
1156.6	60.638
1047.2	69.656
734.62	77.006
191.39	81.4
526.18	81.744
1281.3	80.623
1921	76.059
2288	71.197
2274.6	65.795
1882.6	61.66
1259.9	57.775
1026.7	56.851
1705.6	58.249
2523.1	59.908
3083.9	60.828
3238.6	57.723
2967.3	49.769
2336.7	39.56
1509.2	33.971
663.22	41.11
239.41	58.873
564.23	76.243
677.19	87.321
541.58	90.802
498.92	85.147
855.7	74.947
1301.3	65.192
1647.8	63.655
1842.4	70.214
1958.7	79.12
2122.5	83.006
2431	78.549
2837.7	66.468
3218.9	47.927
3460.3	27.295
3519.1	11.662
3396.7	18.248
3157.1	29.12
2875.3	36.359
2616.8	37.537
2402.5	36.715
2209.7	34.176
2014.9	33.956
1780.2	34.234
1515.5	37.014
1234.9	39.051
970.61	40.249
752.21	41.11
586.99	41.049
507.59	40.162
520.99	38.118
593.85	37.336
675.78	36.688
705.61	38.91
664.4	43.417
554.16	49.204
451.22	54.083
500.78	58.009
707.48	58.241
927.56	55.758
1069.5	53.759
1080.5	52.154
956.25	52
712.89	50.99
446.78	50
338.12	47.676
487.05	44.922
646.45	44.944
710.22	49.659
671.99	57.201
577.04	63.411
504.29	65.46
502.4	61.074
525.34	51.078
509.5	38.288
417.69	24.839
273.2	16.401
131.73	18.028
154.08	22.361
233.81	23.431
259.05	21.401
212.12	18.028
151.22	17.804
169.39	22.472
253.79	27.659
310.93	32.016
298.52	33.242
239.76	31.257
197.13	29.155
239.78	26.249
310.46	23.77
349.23	21.024
292.72	19.647
163.37	17.205
31.89	17
241.62	17.205
8070.4	30.414
6811.4	17.088
5480	35
4843	60.008
5169	80.455
5717.2	94.641
5728.2	103.48
4884.1	110.16
3306.2	115.43
1700.9	120.02
2273	119
3900.5	110.22
4984.2	93.231
5137.2	68.411
4422.9	43.658
3395.2	30.871
3350.5	35.847
4738.6	45.1
6385.6	50.99
7530.2	60.017
7888.5	76.538
7474.8	98.494
6525.6	117.2
5458.8	125.06
4739.8	120.93
4603	102.4
4810.6	74.813
5015	46.043
5049.6	32.558
4925.6	38.897
4739.8	42.048
4549.3	34.54
4384.9	15.811
4220.9	11.402
4008.3	38
3728.1	58.181
3403.2	65.803
3181.1	61.685
3258.7	49.82
3682.5	48.847
4230.4	69.778
4627.9	98.843
4668.1	122.18
4283.4	133
3562.7	128.8
2690.1	111.02
1928.8	85.088
1456.9	56.08
1212	30.017
1199.6	12.207
1781.2	11.314
2843.4	18.974
3983.4	30.067
4833.3	44.385
5130.2	58.6
4749	68
3789.7	70.007
2761.3	65.299
2762.2	53.254
3891.1	38.21
5064.7	22.804
5668.2	11.705
5511.6	11
4623.4	17.72
3211.9	24.207
1640.1	32.016
677.61	39.661
1287.4	46.957
1697.2	52.01
1505.5	56.798
824.63	60.308
429.53	64.288
1351.3	67.268
2123.7	69.527
2474.6	70.88
2321.9	71.784
1756.9	73.817
1099	75.007
1078.8	75.472
1648.5	73.824
2088.5	70.114
2165.6	65.146
1897.7	60.216
1466.8	57.801
1247.1	54.708
1474.5	50.359
1825.5	42.638
2016.8	33.061
1981.8	33.121
1779.2	47.854
1499.5	65.742
1210.2	81.302
871.24	89.889
473.02	89.308
537.52	81.492
1199.8	68
1899.4	56.143
2441.8	54.037
2689.2	62.129
2567.5	71.309
2154.5	77.175
1711.2	74.518
1751	64.846
2365.1	48
3077.1	29.12
3569.7	10.198
3706	12.369
3483.1	24.042
2998.3	30.887
2437.2	33.422
2046.8	31.828
1962.1	31.113
2070.5	33.941
2134.6	37.537
2022.4	39.408
1722	40.817
1302.5	41.593
839.09	43.863
417.96	47.434
197.09	50.804
345.81	51.01
520.91	48.374
673.07	44.721
785.25	43.417
865.81	49.366
902.63	58.464
912.55	65.307
932.27	68.118
961.42	63.82
979.64	55.036
925.49	46.239
772.35	44.777
515.34	48.466
197.97	52.173
271.49	51
598.02	42.953
846	32.985
948.84	30
909.46	39.459
729.05	53.038
463.31	61.685
180.09	63.781
141.28	58.138
290.77	45.277
363.11	29.275
368.95	16
394.74	16.125
485	21.954
587.53	23.77
643.24	19
598.02	12
461.75	11.314
282.21	20.616
194.79	30.232
311.64	35.903
417.6	37.483
426.2	34.482
342.24	30.48
173.93	26.401
93.723	22.204
269.36	18.682
411.58	16.279
468.68	15.133
435.92	18.028
329.66	23.195
171.82	28.32
7364.5	41.012
5862.3	22.804
4768.4	12.369
4506.5	42.048
4729.2	78.409
4826	111.4
4461.6	135.98
3659.7	150
2658	150.16
2001.9	137.06
2342.6	114.39
3194.1	86.833
3898.5	58.009
4163	33.136
3873.4	12.806
3088.6	9.2195
2328.8	28.862
2827	52.924
4459.8	77.175
6174.2	99.126
7384.6	114.86
7766.8	119.51
7202.9	114.53
5831.8	100.4
4182	79.404
3494.9	56.886
4551.1	38.118
6045	26.476
7003.5	21.84
7103.5	19.209
6416.2	17.464
5257.1	18.601
4258.2	24.331
4014.3	30.083
4396.3	33.941
4735	35.355
4631.4	36.688
4044.3	36.674
3134.1	40.311
2197.7	46.098
1704	56.036
1959.2	68.884
2665.6	82.765
3463.6	94.847
4152.9	102.53
4522.9	103.24
4365.6	95.88
3555.5	81.633
2142.5	64
937.94	44.654
2496.7	28.46
4498.5	18.385
6019.6	14.142
6736.5	16.279
6477.4	28.302
5260.9	43.417
3278	58.523
906.12	68.015
1680	68.659
3779.7	61.4
5259.5	45.277
5932.6	23.707
5816.8	9.2195
5055.7	26.683
3941.7	42.755
2782.8	53.907
1930.8	56.921
1552.7	54.571
1441.4	48.795
1397.9	43.012
1518.5	39.013
1841.6	41.761
2186.9	51.865
2330.2	66.851
2149.2	82.037
1627.8	94.868
901.39	100.42
596.64	97.124
1231.4	86.977
1822.4	70.491
2076.8	53.151
1911.3	40.497
1353.2	37.59
493.04	40.025
547.88	42.45
1550.1	44.204
2376	48.166
2898.7	55.172
3036.9	63.506
2773.3	70.264
2142.4	72.007
1266.9	70.093
321.13	66.272
842.28	60.539
1712.2	53.6
2337	46.098
2637.7	37.216
2577.3	29.53
2202.1	27.803
1629.3	34.059
1202.4	43.417
1418.2	50.488
2052.3	53.451
2641	50.931
2992.4	44.721
3058.9	35.341
2865.6	25.495
2533.9	15.524
2268.1	7.6158
2224.7	2
2363.7	8.0623
2527.4	13.601
2541.9	16.763
2352.4	17.029
1982.2	13.342
1508.2	7.0711
1099.8	6.7082
918.69	15.232
959.4	21.932
1027.7	24.698
994.55	23.022
827.07	15.232
605.18	6.0828
440.07	10.817
471.02	22.672
614.63	31.765
731.55	36.346
786.7	36.878
779.98	32.249
740.44	25.612
680.08	19.209
597.17	18.788
504.64	22.472
403.12	26.42
322.69	27.586
296.32	24.187
332.83	16.763
390.04	7.2111
437.42	11.402
465.15	24.331
452.28	36.497
422.25	44.777
355.26	47.634
289.12	44.922
271.19	37.054
313.44	25.962
382.46	16.492
424.97	15.133
423.49	19.416
383.65	22.023
312.64	19.698
246.85	14.213
240.71	5.099
265.77	6.7082
287.57	15.033
271.67	21.024
226.61	24.083
154.06	25.612
107.28	27.785
137.06	33.242
200.53	37.336
252.24	40.608
271.01	39.446
265.66	37.014
215.35	30.364
141.6	24
5715.4	34.205
4439.1	19.698
3277.6	41.11
2635.5	71.554
2792.7	96.69
3389.2	115.97
3983.2	126.37
4395.7	128.39
4578.8	122.49
4538.3	112.06
4280.7	98.489
3820	83.409
3150.6	69.462
2344.1	56.294
1515	45.011
1031.3	37.216
1409.9	38.118
2233.1	48.836
3155.2	65.742
4057.8	82.976
4813.9	97.745
5236	107.97
5142.2	110.34
4416.7	104.35
3067.4	91.417
1413.8	71.84
1662	47.518
3562.8	22.361
5179.5	12.042
6055.8	29.833
6027.8	45.695
5128.4	55.579
3757.8	58.138
2965.3	52.202
3772.6	39.294
5138.7	22.023
6038.2	6
6061.8	21.932
5225.4	39.217
3891	50.249
3019.9	54.589
3684.8	53.759
5013.3	52.154
5939.7	56.798
6051.1	69.376
5266.3	84.149
3736.9	95.713
1833	98.813
1225.3	92.914
2913.7	78.186
4432	57.385
5368.1	33.526
5632.6	13.892
5275.1	22.472
4409.4	38.949
3200.2	50.961
1814.6	58.523
531.6	61.587
1184.2	60.208
2405.9	53.075
3449.1	41.437
4245.4	26.627
4756	10.44
4933.9	16.971
4739.4	34.015
4171.5	48.26
3256.8	56.824
2099.7	59.211
1031.5	56.294
1268.3	52.393
2263.3	52.773
3020.4	59.908
3308.2	71.421
3071.8	83.726
2364	91.241
1397.8	94.149
830.28	90.697
1477.9	82.377
2207.1	69.426
2536.6	55.579
2370.3	42.544
1748.1	33.287
796.9	31.401
299.81	36.125
1338.7	42.72
2158.1	50.249
2655.6	57.689
2796.7	64.008
2614.7	67.067
2186.9	69.08
1585.5	67.179
883.8	63.506
145.84	58.856
751.67	52.24
1542.9	46.487
2200.4	38.949
2614.1	30.61
2680	23.022
2359.3	21.587
1686.9	29.155
886.28	40.025
932.31	49.649
1817.9	55.172
2585	56.462
3011.4	52.038
3006.8	43.324
2603	31.401
1968.4	18.601
1452.8	7.8102
1528.5	8.9443
2006.7	15.811
2403	20
2500.9	18.974
2281.1	14.213
1805.1	7.2111
1238.8	3.6056
858.01	11.402
919.9	17.72
1174.8	20.396
1311.3	18.439
1276.4	12.166
1095.8	5.831
855.46	10.198
624.38	18.868
454.85	25.08
338.37	28.16
286.33	27.203
348.94	21.024
493.96	14
629.07	5.099
705.05	3.1623
690.97	7.6158
587.69	9.8995
452.55	8.9443
366.72	7
418.57	5.3852
531.63	4.2426
627.94	5.099
678.92	9.2195
695.44	16.031
680.71	23.707
637.34	30.887
567.85	35.014
498.49	36.056
451.75	33.106
474.05	25.318
517.64	15.556
527.8	3.1623
470.94	9
348.69	17.804
204.47	23.77
226.74	25.632
377.49	23.854
492.54	20.025
510.11	15
427.03	8.9443
262.84	6.4031
48.374	10
180.56	17.493
353.48	25.02
440.56	29.967
440.24	33.015
346.97	32.558
206.55	28.443
140.66	23.409
247.55	21.541
5732.1	33.302
5364	30.61
4605.8	50.804
3523.1	73.756
2642.9	92.071
3036.2	104.36
4416.9	111.07
5788.7	114.13
6607.4	114.16
6659.1	112.58
5912.8	108.71
4494.5	98.884
2723.1	83.6
1188	62.37
1469.1	39.925
2397.1	26
2851.6	39.56
2873.1	61.984
2902.7	81.049
3360.6	93.814
4098.8	99.624
4624.2	99.925
4563.6	96.876
3753.9	90.355
2274.9	82.134
814.78	70.937
2198.5	56
3998.3	37.947
5209	18.028
5537.6	17.029
4914.1	36.401
3465.6	52.887
1585.6	61.188
1349	60.959
3100.8	50.289
4442.6	31.623
4981.9	9
4645.9	22.627
3574.9	44.181
2215.2	59.034
1839	63.82
3016.9	57.271
4284.1	44.011
5070.6	36.346
5234.8	50.289
4793.8	74.243
3853.5	94.557
2567.9	106.79
1180.3	105.62
1196.2	92.071
2670.2	68.242
4097.6	38.013
5168.5	13
5707.7	32.311
5571.7	56.08
4742.4	72.236
3295.6	77.233
1432.5	73.007
659.25	60.638
2576.6	43.278
4172.9	23.77
5250.6	4.4721
5739.6	13.153
5638.1	27.459
5039.2	38.833
4021.7	46.325
2725.1	50.249
1279	50.16
436.99	47.634
1664	43.186
2694.7	40.608
3285.4	44.204
3333.1	53.339
2847	64.195
1994.9	75.027
1258.6	80.957
1537.9	82.801
2295.3	80.709
2767.7	74.041
2729.6	65.008
2172.5	54.745
1241.8	46.573
443.23	43.174
1148.6	47.297
1915.4	57.245
2295.9	67.417
2280.3	75.822
1988.1	78.924
1639.6	77.058
1418.6	70.214
1257.5	59.641
979.49	48.104
602.43	39.408
887.73	34.986
1696	33.242
2432.6	29.069
2839.8	21.19
2769.9	8.6023
2191	8.4853
1211.8	23.195
268.15	35.468
1225.3	42.521
2115.1	44.643
2568	41.437
2527.7	34
2079.9	26.907
1490.2	22.672
1271.2	20.248
1585.5	18.682
1919.7	15.297
1982.2	7.8102
1770.5	4.1231
1523.1	11.18
1547	17.464
1802.1	20
1964.2	19.105
1826.8	16.125
1353.2	13.601
692.03	16.492
630.45	21.19
1309	25.06
1843.9	26.926
2043.2	26.926
1872.9	26.476
1394.4	24.207
744.35	23.022
76.217	20.518
452.62	16.125
749.72	10.817
800.83	4.1231
703.31	3.1623
645.88	8.4853
763.39	11.18
904.68	9.8489
923.97	6.4031
782.52	2
583.81	8.6023
558.24	16.279
746.12	23.087
901.49	27.659
880.36	30.414
671.72	30.083
302.52	29.206
137.42	25.318
524.42	21.541
786.28	17.804
866.01	12.042
771.21	7.2111
569.15	3.6056
423.95	7.8102
478.23	14.142
569.08	20.616
564.99	24.413
410.6	25.318
149.38	22.804
163.93	17.205
422.37	11.18
576.6	14.036
596.21	22.204
470.74	30.871
255.2	36.125
80.411	36.056
228.24	32.016
345.22	24.739
342.25	18.682
235.1	18.028
5469.6	44.688
4853.2	44.294
3546.8	60.671
1685.9	79.649
451.22	93.493
2516.5	100.98
4182.6	101.98
5211.8	101.97
5486	102.94
5031.2	106.4
4010.2	108.27
2683.4	104.24
1354.8	92.892
384.01	71.021
532.02	43.863
696.42	21.587
651.79	38.079
991	65.924
1714.6	88.363
2441.3	101.41
2959.5	104.81
3171.1	101.82
3071.1	95.718
2749.9	89.32
2334.6	83.361
1968.7	77.058
1759.6	63.891
1769.3	45.793
1945.7	22.204
2179.7	15
2344.5	38.21
2362.9	59.059
2257.9	70.349
2204.4	69.289
2419.3	56.639
2886.8	34.366
3361	12.369
3592.2	30
3465.5	53.824
3052.3	67.978
2664.2	70.064
2766.2	58.822
3401.2	39.395
4123	32.14
4566.7	53.488
4569.1	81.744
4112.1	103.16
3316.2	111.5
2399.1	106.23
1744.9	87.664
1817.1	60.531
2426.4	29.833
3115.4	18.385
3711	39.825
4141.1	58.138
4384.7	68.264
4438.3	69.376
4376.8	65.031
4307.7	56.613
4291	44.102
4280.7	29.206
4141.7	12.369
3752.2	8.6023
3112.2	28.018
2390	44.777
1993.9	56.569
2184.2	60.374
2580.3	56.089
2745.8	47.043
2559.6	38.328
2193.6	40.497
2150.5	52
2713.8	65.253
3487.5	74.169
4044	77.782
4164.5	78.109
3806.3	76.942
3084	75.802
2270.6	73.553
1797.6	67.956
1894.4	58.181
2161.2	45.541
2206.9	36.235
1948.7	39.598
1443.3	53.075
843.7	67.201
377.4	76.322
428.98	78.16
634.04	72.035
815.5	61.774
1091.5	48.27
1504.6	37.483
1938	32.558
2276.9	31.828
2430.4	32.45
2354.7	28.862
2061.1	22.561
1597.5	13.892
1073.3	12.806
769.81	20.881
1000.4	29.833
1429.1	35.693
1731.8	36.674
1799.7	33.287
1597.5	27.586
1176.2	22.804
669.43	21.401
513.8	23.324
857.26	24.515
1131.9	22.561
1150.3	16.971
921.48	11.045
633.41	9.0554
749.42	14.866
1181.5	21.024
1510.3	24.597
1581.8	23.77
1326.6	21.095
782.51	18.385
212.51	18.111
783.67	21.932
1419.9	25.02
1809	26.907
1875.5	26.683
1615.3	23.77
1103.1	19.209
520.18	13.342
511.29	8.0623
969.38	5.099
1272.4	4
1326.7	5
1136.1	4.1231
760.6	2.2361
298.29	2.2361
162.12	5
532.22	8.0623
775.02	10.198
880.47	13
855.08	15.297
735.81	20.125
545.27	24.759
345.02	29.967
229.01	33.015
355.62	33.106
537.44	30
660.19	24.187
690.97	15.264
630.14	7.0711
491.06	10.44
331.26	18.028
226.98	23.022
202.27	25.08
179.61	22.627
104.68	18.868
44.407	14.318
207.93	12.207
357.34	13.454
438.7	17.029
438.99	20.518
346.62	23.854
196.43	25.298
67.067	26.077
156.52	24.331
244.13	20.616
250	14.765
187.78	11.705
5058.1	73.246
4430.6	89.051
3278.6	103.71
2002.6	110.55
1452.4	107.42
2121.8	92.957
2895.5	70.774
3323.1	54.626
3420.4	58.83
3329.5	77.078
3217.7	92.087
3134	94.937
2974.1	84.404
2628.6	64.008
2071.9	39.623
1407.7	29.411
855.74	39.812
758.58	51.225
962.68	54.129
1169.8	49.163
1499.3	43.417
2067.2	49.163
2769.6	63.789
3381.3	77.698
3730.9	83.006
3691.3	78.645
3279.8	64.537
2608.2	44.654
1922.7	24.839
1500.8	10.296
1407.9	11.402
1357.1	14.866
1235.7	16.643
1372.9	24.207
2022.6	38.013
2886.1	52.154
3616.1	61.327
3989.8	64.9
3928.4	61.074
3536.7	51.624
3167.2	40.112
3317	30.463
4035.6	29.206
4861.8	38.471
5389.8	50.636
5391.8	62.626
4814.4	71.847
3734.8	76.322
2377	75.611
1267	68.68
1661.4	55.444
2725.2	38.21
3589.5	19.698
4130.3	5.6569
4416.6	5
4590.1	7.0711
4777	7.2801
4990.2	17.205
5132	33.838
5078.4	50.16
4739.2	63.812
4083.4	69.971
3176	68.184
2155.9	58.873
1345	43.932
1328.8	27.659
1915.1	18.601
2479.7	21.541
2836.8	25.942
3000.7	25
3063.2	21.401
3120	23.259
3246.2	31.305
3414.6	41.773
3534.9	49.193
3513.9	49.041
3317.8	43.081
2935.2	31.828
2430.3	18.868
1899.4	12.042
1440.1	14.765
1151.5	15.556
1033.4	12.166
987.95	6.3246
958.92	15.033
959.11	30.61
1019.4	44.922
1120.6	54.12
1206.1	56.639
1272.2	50.99
1333.8	38.601
1446.8	21.401
1604.7	8.0623
1770.8	21.633
1884.1	35.903
1908.6	44.643
1871.1	46.69
1833.7	42.059
1857.8	34.234
1926.1	23.77
1971.9	17.889
1912.9	17.889
1701.6	21.213
1340.8	21.84
880.36	20.616
434.08	17.464
317.24	14.765
530.64	11.18
649.06	7.8102
609.6	1.4142
427.28	7.0711
258.6	15.264
388.4	23.345
638.85	28.425
832.51	30.017
920.18	28.425
904.71	25
819.18	26.476
705.56	31.828
629.22	38.21
639.28	43.186
720.35	43.105
824.38	38.275
894.62	28.792
898.48	16.763
797.81	5.3852
594.22	5
310.1	10.77
95.258	12.53
393.86	10.44
675.37	7
864.06	10.05
935.19	14.866
883.14	18
744.83	18.028
550.82	14.765
378.8	7.2801
313.52	6.3246
360	14.56
431.52	22.672
473.91	28.16
471.84	30.083
428.23	29.732
341.58	26.173
246.11	22.472
212.42	18.974
279.86	15.811
353.95	14.422
380.48	14.036
317.21	13
186.45	12.728
135.15	13
314.43	12.042
495.52	9.434
610.02	5.3852
621.91	1.4142
533.39	4.1231
373.43	8.544
234.01	11.402
270.74	13.601
382.99	14.142
434.17	13.892
386.83	12.806
257.03	10.44
116.21	8.2462
194.37	4.2426
5542.1	94.874
5929.5	112.07
5592	120.77
4861.3	118.15
4131.1	101.71
3739.9	76.243
3553	46.141
3173.6	28.284
2342	44.147
1090	65.069
801.64	79.177
2274.8	81.835
3509.9	76
4170.8	65
4102.2	52.173
3317.1	42.72
1957.7	37.108
325.55	34.176
1474.8	29.732
2952.5	26.907
3994	30.414
4499.4	39.408
4483.9	48.847
4042.9	56.321
3323.2	59.439
2462	59.169
1565.7	55.227
698.57	48.754
445.04	40.311
1209.8	28.443
1975.2	17
2594.9	5.6569
2997	5.6569
3163.2	14.765
3099.2	24.352
2878.7	36.346
2603	49.649
2399.9	60.415
2378.5	67.624
2603.7	66.491
3054.3	57.28
3649.3	37.802
4257.1	17.493
4764.9	28.425
5035.4	56.436
4970.6	79.398
4513.4	93.606
3651.7	95.341
2435.8	85.586
967.29	66.483
621.12	43.012
2176.6	20.591
3558.1	8.544
4652	13.601
5382.4	14.036
5728.3	9.2195
5704.2	15.811
5380	33.242
4835.8	50.16
4175	61.008
3490.8	66.212
2867	62.37
2369.3	52.811
1996.6	40.012
1708.5	26.306
1476.2	18.111
1374.7	15.033
1553.3	12.166
2020.1	9.4868
2598.7	8.6023
3154.2	15.232
3587.6	22.825
3852.1	28.284
3965.4	32.249
3950.5	32.016
3848.5	31
3678.5	29.12
3421.6	25.554
3038.5	21.932
2533.5	16.553
1914.2	11.18
1232.9	7.0711
576.92	4.4721
340.47	6.3246
759.33	11.705
1139	21.401
1370.4	32.388
1418.5	41.785
1281.5	48.27
956.24	48.662
480.26	42.72
345.04	29.206
988.77	12
1666.5	9.0554
2252.2	28.425
2647.4	42.379
2809.2	50.99
2734.9	51.088
2462.8	43.463
2060.3	31
1609.8	17.029
1189.4	14.422
866.02	24.698
647.97	32.388
523.27	35.114
449.4	32.202
388	24.021
303.91	14.213
183.37	7.8102
44.721	12.207
186.5	18.028
383.86	22.472
542.89	25.06
640.51	27.295
679.12	29.698
675.43	34.132
681.69	37.802
718.6	41.437
786.04	42.012
845.38	42.107
892.35	39.623
913.94	37
935.17	31.89
918.77	25.179
856.49	18.028
721.52	9.0554
516.09	3
308.46	7.6158
341.1	12.649
573.17	16.553
783.79	17.889
896.08	17.464
888.12	14.422
779.98	11.18
606.9	7.6158
413.19	4.2426
269.77	5
201.85	9.434
206.65	13.342
268.3	17.889
383.88	21.471
520.6	23.022
618	23.324
667.22	23.601
641.81	21.84
563.39	22
464.81	22.136
378.26	22.672
324.04	21.932
299.82	19.105
281.77	15
300.27	10.198
372.73	7.0711
466.23	5.831
545.6	7
569.3	7.2111
530.75	5.831
434.34	4.4721
305.66	5.6569
169.33	8.6023
42.72	12.166
63.159	13.928
140.01	14.765
190.19	14.318
206.12	12.207
194.49	10.77
4999.1	82.42
5813.1	93.038
6027.2	101.32
5730.6	101.83
5056.3	93.231
4160.6	75.954
3171.8	49.578
2161.1	17.464
1146.3	17.029
157.7	49.679
887.25	76.844
1804.7	93.172
2553.6	97.745
3018.8	91.417
3128.4	76.42
2818.2	55.902
2108.1	38.013
1104	30.887
659.03	34.482
1851.8	38.897
3116.2	38.484
4133.3	33.061
4731.2	24.739
4825.8	18.974
4390	20.881
3501	26.627
2274.3	33.541
930.32	38.328
668.92	41.725
1763.1	42.579
2626.6	39.395
3137.8	32.202
3315.6	23.087
3253.5	17.088
3047.2	23.324
2808.8	35.171
2602.6	45.122
2446	51.624
2377	53.339
2467.2	51.039
2790	47.854
3323.7	46.228
3970.8	48.01
4585.1	52.326
5023.5	58.138
5157	61.587
4888.6	62.241
4164.4	61.814
3019.9	58.258
1597.1	53.488
965.63	47.518
2390	40.804
3946.7	34
5187.3	26.173
5956.1	19.105
6197.3	17.117
5930.6	21.095
5292.6	29.155
4477.8	36.069
3717.9	41.761
3200.7	44.147
2930	43.139
2739.4	39.56
2440.4	32.985
1938.9	24.839
1247.5	16.553
573.69	10.44
896.66	8.544
1790.5	10.198
2680.3	12.166
3441	12.728
4020.2	13.153
4377.2	13.892
4485.8	14.765
4358.7	15
4030	15.232
3553.3	17.029
2982.6	18.358
2392.9	19.416
1816	20.224
1297.3	18.385
877.27	16.643
639.64	16.643
692.02	20.248
895.78	27.586
1086.6	35.777
1175.1	41.049
1131.9	43.863
973.43	42.012
746.45	36.346
620.14	27.313
820.75	16.155
1209.8	9.434
1630.5	16.279
1996.8	26.019
2268.9	33.121
2423.9	37.736
2452.3	38.21
2367.2	33.838
2168.7	26.173
1888.1	16.125
1567.2	7.8102
1245.9	12.042
966.26	21.213
766.65	28.302
641.95	32.249
542.85	30
433.67	24.413
319.38	15.297
268.78	7.2801
324.41	13.342
415.02	22.804
465.03	30.594
465.91	34.482
445.79	37
460.98	36.674
566.41	37.947
721.84	40.706
875.06	42.72
993.19	44.272
1060.8	43.012
1065.5	39.013
1011	32.757
909.4	24.597
760.13	15.033
592.16	6.4031
424.64	1.4142
285.7	8
198.01	12.53
185.55	15.652
243.82	16.031
361.19	15.811
506.01	13.928
643.08	10.44
744.79	6.7082
772.34	4.2426
729.8	5
618.71	9.4868
480.78	14.422
352.97	18
279.3	20.591
264.97	22.204
275.14	21.587
309.69	21.095
394.87	20.248
498.24	20.248
577.6	21.26
585.67	21.932
504.32	21.024
353.56	19.313
190.52	16.279
253.55	11.402
449.59	7.2801
602.48	3.6056
674.93	2.8284
658.77	3.1623
565.9	3.6056
426.64	3.6056
271.01	4.4721
133.33	6.7082
38.053	9.8995
76.694	12.083
156.46	14
223.27	14.318
266.87	13.601
274.42	12
6556.4	78.772
7357.8	90.785
7243.8	99.624
6252.2	103.48
4615.6	97.35
2697.1	80.529
1234.4	54.129
1692.4	27.203
2536.4	32
2779	60.216
2320.1	85.024
1284.2	99.865
126.57	101.13
1551.4	89.275
2749.9	67.742
3457.9	40.361
3558.6	21.095
3164.6	30.017
2779.6	45.607
3287.8	53.263
4639.5	49.244
6068.7	36
7040.3	17.464
7239.1	13.601
6569.1	32.802
5134.6	49.193
3322.3	59.076
2165.3	60.465
3006.4	54.626
4368.7	42.426
5200	27.019
5240.3	10
4531.6	10.296
3266.5	23.537
1738.3	35.114
222.33	42.202
1106.4	46.098
2223.1	46.141
3230.7	44.294
4241.1	41.012
5189.4	38.588
5881	36.715
6105.4	38.013
5732.3	41.617
4795.1	47.76
3541.7	55.082
2482.9	63.253
2239.7	69.354
2466.4	71.113
2332.4	68.505
1473.4	60.208
103.41	46.819
2169.6	31.401
4357.3	18.868
6268.6	20.224
7525.9	30.414
7892.2	38.471
7284.9	41.773
5835.9	41.785
3825.2	39.051
1789.6	34.928
1476	30.887
2751	29
3564.7	26.833
3591.9	24.083
2868.8	21.024
1604.4	16.643
645.65	12
1977.2	8.0623
3431.9	4.2426
4544	4
5198.1	10.05
5383	16.125
5163.2	21.633
4625.2	26.173
3886.3	27.203
3068.4	25.612
2301.6	21.633
1759.1	17
1572.2	13.892
1607.6	15.62
1616.2	19.849
1462.2	23.324
1143.8	26.571
776.41	28.284
627.08	30.067
823.2	31.623
1034.1	33.015
1068.2	33.015
908.53	30.414
613.37	26
520.54	21.024
892.44	18.868
1374.6	23.022
1799.6	29.732
2101.6	35.903
2282.9	37.947
2353.8	36.125
2331.9	30.806
2221.8	21.84
2034	9.8995
1773.8	1.4142
1447.4	12
1080.9	20.591
717.19	24.413
396.55	26.476
177.55	25
154.74	20.518
203.39	14.866
220.17	7.6158
214.2	5
253.85	12.369
347.51	21.26
462.16	28.443
579.21	35.468
655.7	39.408
687.89	43.012
679.3	44.102
648.62	43.658
668.99	43.681
763.09	41.4
896.04	38.053
1008.1	32.757
1060.7	25.942
1018	18.111
899.18	9.2195
722.58	2.2361
542.09	6.7082
391.34	12.042
271.45	16.125
146.74	17.205
82.855	16.492
285.11	15.033
525	11.705
736.74	7.2111
872.91	2.2361
907.07	4.4721
820.64	9.434
625.05	14.866
375.11	18.788
165.86	21.213
278.24	23.195
460.37	22.847
591	22.804
646.4	21.401
648.2	20.125
608.36	18.682
565.71	18.028
524.02	17.263
481.86	16.553
450.98	15.556
426.66	13.928
410.73	11.18
386.39	8.4853
345.2	7
302.04	5.6569
297.84	4
345.86	2.8284
403.21	1.4142
439.48	4.1231
424.32	8.4853
362.58	12.369
271.89	14.56
212.4	15.62
235.46	15.133
299.2	14.318
7686.6	81.835
9082.4	82.807
9365.2	86.284
8343.2	89.185
6173.7	89.022
3297.5	79.158
1063.8	61.4
2941.5	39.925
4664.9	39.56
5220.3	65.521
4601.2	93.231
3220.4	110.11
2402.1	111.22
3494	95.708
4986.2	67.424
5836.5	30.806
5863.9	10.44
5422.8	39.925
5355.8	59.135
6252.5	63.812
7618.2	54.203
8660.6	32.016
8885.5	4
8157.6	25.06
6639.2	48.042
4782.5	60.008
3379.6	62.37
3275.2	55.362
3927.8	42.107
4324.1	32.016
4130.6	28.16
3354.2	29.155
2203.2	29.069
991.08	25.495
966.25	23.195
2024.2	28.16
2962	37
3615.3	45.255
3964.2	49.244
4049.8	50.567
4022	51.894
4073.3	51.42
4293.5	50.329
4559.4	47.854
4630.8	44.553
4326	45.31
3586.3	51.865
2493.6	62.801
1264.3	72.035
179.6	75.432
717.52	70.711
1248.9	57.07
1856.4	36.674
2914.2	14.142
4320.5	16.279
5723.3	35.057
6712.1	48.166
6978.7	51.662
6378.6	46.174
4945.3	33.941
2897.4	18.028
703.77	14.318
1716.5	28.636
3316.3	41.231
4099.7	46.819
3931.7	45.122
2897.7	36.125
1409.8	21.024
1541.8	5.099
3330.7	15
4892.6	28.636
5857.6	35.468
6115.5	35.228
5732.7	29.069
4903.5	16.763
3902.3	7.0711
3030.1	13.454
2436.4	22.847
2060.1	25.179
1691.6	21.26
1241.8	12.166
767.06	3.6056
537.59	16.125
700.02	28.636
837.88	35.511
769.4	36.797
501.78	31.321
113.09	22.361
385.94	13.601
743.45	12
906.81	20.1
823.69	27.019
464.44	33.541
207.68	38.275
944.42	41.976
1739.9	45.277
2434.7	44.922
2888.6	40.719
3014	32.696
2787	22.847
2226.9	15.033
1479.6	12.649
789.65	14.866
749.6	15
1151.6	12.53
1377.8	7.2111
1295.7	9
972.73	16.279
648.46	21.26
771.8	23.537
1134.5	21.633
1358.4	20
1312.2	24.166
982.35	32.65
444.61	42.154
211.15	49.031
803.63	51.662
1259	49.396
1479.6	45.044
1451.2	39.925
1219.2	35.609
849.78	32.45
467.82	29.614
264.8	24.042
391.64	18.028
539.74	13
653.29	13.038
744.4	17.493
802.26	21.213
778.73	21.213
653.38	19.416
410.47	14.318
163.08	8.0623
375.71	3.6056
694.68	2.8284
912.93	5
986.43	4
900.57	5.099
680.43	9.2195
371.44	14.142
44.944	18.358
259.79	20.616
479.28	20.881
610.66	19.026
652.77	15.524
630.79	13
576.51	12.649
494.95	13.928
409.89	16.125
309.59	17.692
233.93	18.788
182.27	18.111
200.85	15.524
282.88	13.038
394.16	9.2195
511.45	5.3852
599.87	2.8284
631.73	4
582.66	7.2801
464.15	8.6023
280.07	10.296
77.666	10
116.28	10.296
234.44	10.296
273.53	10
253.71	10.296
6454.6	57.315
6898.6	45.618
7171	34.928
6973.4	38.949
6156.6	53.451
4754.8	67.897
3019.4	79.209
1808.5	85.586
2504.2	90.211
3779.2	94.366
4581	95.964
4692.4	93.862
4187.4	86.313
3483.9	73.164
3360.2	54.231
4195.2	35.171
5419.2	23.324
6484.2	25.495
7180.1	32.016
7539	33.615
7702	30.806
7812.9	23.324
7865.7	17.088
7725.4	13.153
7219	12.207
6283.8	10.817
5062.7	13.601
3940.6	20.616
3454.3	29
3651.3	35.355
3872.8	35.847
3591.2	30.15
2654.3	19.105
1208.9	9.2195
954.1	19.209
2611.4	33.136
3982.3	43.012
4726.2	46.53
4782.3	45.398
4345.6	43.046
3900.9	45.541
4011.3	55.027
4630.6	65.803
5180.3	73.573
5222.7	74.673
4604.3	68.68
3432.4	57.201
2003.6	46.098
909.6	40.804
1055.2	42.942
1302.7	47.676
1029.7	47.434
1222.6	42.438
2685.3	32.28
4476.2	27.074
6037.5	35.847
6978.2	49.649
7055.6	58.523
6214.6	59.464
4576.3	51.108
2441.3	35.171
274.13	17.029
1848.3	23.409
3244.7	42.202
3848.3	56.436
3632.4	61.685
2759.1	58.31
1654.6	46.819
1564.5	35.468
2694.2	33.106
3836.3	42.012
4631.2	50.249
5026.8	51.01
5093.2	43.841
4930	31.145
4600.1	18.439
4126.6	22.204
3498.6	34.828
2731.6	42.297
1932.3	42.012
1361	35.693
1328.8	28.46
1601.1	29.411
1746	37.162
1613.6	44.944
1203.7	45.541
632.38	37.443
420.63	23
890.19	3.1623
1264.6	17.72
1346	37.363
1092.2	50.99
549.68	58.549
452.58	57.697
1293.4	50.606
2130.7	40.311
2774.8	28.32
3114	19.105
3094.5	13.416
2749.4	11.705
2190.9	10
1616	9.8489
1304.1	10.77
1348.2	13.038
1461.8	15.524
1397.1	15.556
1095.4	13.601
596.16	10.77
71.449	8.9443
556.09	8.9443
967	12.083
1177	17.117
1160.2	23.324
967.38	31.064
728.24	39.319
673.63	44.598
883.85	48.104
1140.2	47.802
1320.9	43.932
1395.1	37.802
1374.4	30.887
1275.7	23.345
1121	20.025
944.1	17.72
754.45	18.601
582.74	18.385
445.22	18.682
332.96	17.493
226.23	16.492
121.5	16.553
127.39	17.464
239.72	17.088
332.62	16.155
360.47	15.652
363.85	12.166
413.94	8.4853
573.97	4.2426
760.37	4
888.2	10.05
908.78	14.422
807.87	18.358
611.1	19
489.98	18.358
608.13	15
829.93	9.4868
977.65	5.3852
987.33	5.3852
847.54	10.296
579.08	12.728
255.56	15.232
114.14	15.033
358.99	14.318
532.23	12.083
616.7	10.817
667.8	9.8995
704.55	9.434
755.16	6.3246
778.15	4.1231
742.47	3.1623
625.49	6
472.3	10.44
341.89	13.601
320.85	15.264
353.11	15.133
329.22	14.318
223.57	13.416
7930.6	54.129
7862.1	48.042
7420.2	32.894
6686.9	21.024
5807.7	35.341
4929.3	64.133
4203.8	91.214
3759.1	110.32
3660.8	119.57
3798.7	118.27
3994.2	107.42
4086.9	91.088
4010.8	72.139
3812.2	58.31
3625.7	50.249
3643	45.541
4003.9	40.719
4678	32.894
5568.8	22.472
6521.3	14.866
7379.6	17.205
7985	23.195
8204.1	25.08
7996.2	22.627
7406.3	19.209
6649.5	21.26
5993.6	29.698
5630	38.013
5448.4	42.107
5144.3	40.853
4454.6	32.016
3312.8	19.026
1922.7	8
1321.1	20.025
2329.3	33.601
3380.9	43.382
3872	46.174
3674.1	43.932
2867.7	40.162
1833.4	40.162
1740.6	48.104
2846.7	59.363
3996.5	66.708
4726.8	69.289
4904.6	65.008
4562.4	55.362
3834	42.544
2938.8	33.615
2138.2	34
1727.2	40
1804.5	44.418
2121.1	45.044
2465.4	41.049
2814.7	37.656
3177.8	36.125
3564.8	40.05
3951.3	44.598
4260.5	47.043
4398.4	45
4275.8	37.855
3828.1	28.018
3066.9	20.224
2098	23.087
1325.5	32.016
1623.4	40.112
2575	45.967
3445.3	47.17
4035.9	44.204
4264.3	40.311
4170.7	36.797
3841.7	36.125
3383.8	36.892
2928.7	37.108
2586.7	36.235
2403.2	33.838
2341.2	30.364
2308.2	27.019
2217.5	27.295
2025	30.463
1697.3	33.121
1285.4	37.483
845.43	40.46
540.2	43.046
614.7	44.553
918.74	44.045
1203.9	40.46
1397.4	33.136
1460.4	22.672
1353.9	15
1059.7	21.633
607.67	34.059
389.62	46.4
945.99	54.12
1604	55.973
2141	53.413
2462.2	46.174
2520.1	35.777
2322.6	24.413
1916.5	14.318
1408.3	7.0711
913.59	6.3246
585.73	8
535.99	8.6023
601.91	10.05
619.44	10.63
580.24	12.042
522.43	12.53
500.17	12.53
530.07	12.166
623.87	12.042
726.46	15.524
806.24	20.248
800.28	26.926
670.5	33.136
409.7	38.626
50.567	41.11
364.73	42.45
746.61	41.593
1029.6	38.588
1163.2	33.422
1143.2	29.547
994.42	26.683
828.4	25.02
764.49	23.345
830.89	23.259
908.56	21.932
902.8	19.698
806.07	16.031
661.94	13.454
565.6	11
560.65	12.207
589.88	15.133
574.22	17.692
500.78	18.974
412.17	17.263
401.4	13.038
466.8	7.8102
521.21	5.099
497.69	11.705
392.05	18.028
225.89	21.541
89.499	21.932
207.28	18.974
337.2	14.036
411.1	6.7082
443.3	1.4142
465.91	7.2801
498.26	11.662
526.23	14.213
540.22	13.601
530.02	12.042
520.38	10
525.1	9
541.71	10.05
551.85	9.4868
514.51	7.8102
433.2	5.3852
313.08	2.2361
213.27	3.1623
158.01	6.7082
160.11	9.8995
154.69	11.18
123.89	12.042
102.34	12.042
128.02	11.705
148.95	11.662
8692.6	33.242
8615.8	29.069
7899.4	21.587
6684.4	15.232
5235.4	21.401
3930.8	38.949
3191.7	62.177
3193.6	86.023
3551.8	105.55
3858.6	119.57
3943.4	125
3801	120.11
3550	105.31
3435.7	83.934
3716.2	58.83
4419.8	37.162
5325.4	29.275
6165.8	34.482
6765	38.079
7060.7	34.176
7071.2	24.515
6903.1	9.8489
6661.9	11.314
6444.3	24.698
6303.4	34.015
6270.4	36.892
6304.6	33.242
6313.6	24.352
6154.9	13.928
5674.6	8.0623
4838.5	6.4031
3759.5	3.6056
2892.6	5.831
2943.4	20.396
3732.2	36.235
4438.7	50.537
4573.4	57.559
3961.3	55.902
2626.8	44.147
807.81	22.472
1285	5.3852
3148.4	35.014
4535.3	60.216
5208.4	76.896
5078.4	81.492
4265.5	72.346
3030.6	50.04
1979.8	20.518
2013.5	16.553
2730.4	46.53
3213.6	70.491
3216.9	83.217
2818.8	84.433
2439.6	76.322
2645.8	61.392
3437	44.777
4305.5	29.967
4919	22
5114.8	14.765
4852.3	7.8102
4215.8	4.1231
3351.4	14.036
2519.4	22.472
2099.4	29.155
2286.8	34.525
2716	42.521
3065.6	53.852
3229.5	67.119
3274.1	77.078
3322.5	82.28
3449.3	81.394
3607.8	75.432
3676.8	68.25
3535.1	63.285
3156.7	61.294
2622.4	59.933
2082.8	57.271
1734.8	51.856
1645.8	45.1
1623.3	39.446
1441.7	35.847
1041.2	31.623
466.13	24.352
200.09	14.213
801.04	12.166
1248.3	23.537
1457.3	32.558
1420.1	35.693
1147.3	29.682
725.96	19.235
207.59	24.042
339.76	44.721
860.17	66.573
1336.8	80.957
1733.4	86.377
2028.4	79.925
2169.8	63.789
2133.6	42.438
1920.1	23.854
1551.2	22.023
1135.3	32.28
831.64	38.079
787.9	38.471
894.73	35.128
959.26	34.409
924.94	36.401
850.3	37.947
842.93	32.65
942.91	21.587
1041	9.2195
1038.6	20.224
897.78	39.661
620.12	54.083
327.36	60.605
394.51	58.873
700.21	48.508
924.3	33.615
1003.9	19.723
924.52	20.1
716.95	30.806
441.24	37.802
288.26	38.079
427.14	33.377
593.86	24.083
646.37	12.369
576.77	1.4142
391.46	10.198
151.71	17.464
160.11	24.166
370.47	27.514
500.28	30.017
515.1	30.594
411.27	27.803
212.8	23.087
79.228	15.62
298.94	9.8489
487.08	9.4868
591.08	14.142
585.71	18.028
483.37	19.313
314.58	18.439
123.98	14.142
69.426	9.2195
192.31	3.1623
267.73	1.4142
320.34	4.1231
406.39	4.4721
526.54	2.8284
651.25	1.4142
732.73	5.099
744.3	9.2195
691.78	12.166
582.65	13
458.19	12.207
360.47	10
313.38	5.6569
299.71	2.2361
274.82	3.1623
234.02	5.6569
179.57	7.0711
136.06	8.9443
118.95	12.083
129.44	14.866
124.81	17.088
125	16.125
113	13.153
6945.7	44.045
7752.5	32.249
8132	16.155
7966.8	12.042
7263.2	32.985
6135.8	55.145
4791.9	74.686
3512.2	89.939
2658.4	101.51
2449.3	106.3
2669.7	107.42
3017.8	101.83
3402.1	92.779
3870.8	78.791
4425.3	63.632
5004.6	48.27
5538.5	40.311
5979.3	38.588
6316.8	38.639
6552.5	36.892
6664.2	30.083
6648.9	18.358
6545.4	8.0623
6432.5	14.866
6425.1	26.173
6570.3	33.971
6758.4	38
6770.7	36.797
6422.5	33.061
5629.8	27.659
4527.3	20.025
3564.3	10.63
3479.5	3.1623
4259.7	18.788
5111.8	35.777
5453.2	49.497
5052.2	57.28
3914	56.886
2251.1	47.885
1030.8	30.083
2378.8	16.279
3951.2	33.541
4944.3	57.428
5167.2	75.286
4620.8	82.541
3478.8	78.492
2140	62.201
1520	38.833
2201.4	26.627
2942.6	45.967
3187.4	71
2878.9	89.644
2286.8	96.566
2112.1	91.417
2846.7	76.276
3931	55.145
4828	32.016
5289.7	15
5229.7	16.971
4699.8	22.804
3802.9	22.472
2760.8	18.439
1910.1	22.023
1744.9	34.928
2221.6	49.649
2804.7	61.984
3236	70.235
3475.3	75.286
3539.2	78.262
3497.4	81.345
3400.7	83.385
3270.4	83.385
3091.4	80.623
2845.6	74.095
2514.6	63.695
2122.2	52.839
1732.7	46.174
1424.2	45.453
1242.9	45.541
1149.4	44.045
1039.8	37.054
852.01	25.495
605.67	12.53
407.07	14.142
442.63	25
617.05	32.249
753.67	34.015
801.34	29.732
763.7	25.495
678.26	28.653
629.42	40.706
705.09	55.66
898.05	66.483
1144	72.402
1394.5	72.111
1587.9	64.661
1680.6	53.6
1631.7	38.91
1436.1	23.77
1119.6	13.892
771.91	16.125
513.55	24.597
508	30.676
612.08	34.176
631.34	34.986
530.93	32.249
405.1	26.173
484.15	17.117
740.03	7.0711
982.6	8.544
1109.2	20.616
1090.1	32.558
931.05	41.11
675.33	45.541
425.17	46.53
356.91	42.438
475.21	33.838
579.38	23.409
593.94	15.652
524.22	17.692
424.19	25.495
364.97	31.78
395.55	34.015
454.69	31.016
492.54	24.083
478.27	15
413.67	8.9443
325.63	15.033
244.08	24.042
239.27	31.145
305.36	33.838
375.83	32.757
398.93	28.32
370.29	22
268.9	17.205
120.77	16.125
76.531	19.026
252.38	21.932
401.46	23.195
487.74	22.472
498.08	19.647
439.05	16.125
333.54	12.166
200.81	9.2195
97.185	8.544
99.202	8.0623
152.09	7.2111
216.01	7.2111
304.84	8.0623
420.86	11.18
529.94	13.928
606.32	16.553
636.45	16.763
608.19	15.264
546.37	12.369
477.6	9.8489
440.26	7.0711
428.3	7.2111
435.21	10.198
438.66	13.416
438	16.763
438.18	18.868
429.01	19.105
412.66	17.692
371.36	14.036
331.51	9.2195
5549.9	31.241
6528.2	19.313
7291.4	5
7694.6	15
7613.8	32.249
7041.4	49.204
6045.1	63.325
4786.9	76.236
3461.8	85.493
2308.5	93.349
1573.4	97.944
1440.5	99.323
1870	96.768
2707.3	89.872
3838.7	78.186
5100	62.801
6289.7	46.669
7208.7	32.016
7744.2	25.942
7861.6	27.295
7634.1	30.083
7187.3	28.231
6710.2	21.024
6320.1	12.207
6053.4	14.142
5839.8	26.476
5593.7	37.483
5267.8	44.147
4901.3	44.643
4609	38.288
4487.4	26.42
4562.5	13.601
4725.8	17.029
4811.6	33.377
4665.1	46.648
4210.1	54.378
3485.8	54.083
2710	46.53
2358.2	33.615
2781.2	19.849
3536.2	24.083
4130.9	42.107
4297.9	58.052
3958.4	68.884
3161.8	71.512
2049.6	66.287
856.31	54.332
556.49	41.34
1308.2	37.443
1715.5	48.166
1647.7	64.661
1146.4	79.025
366.27	85.983
754.98	86.006
1755.1	77.104
2638.3	62.241
3298.9	43.738
3714.8	24.413
3910.8	10.296
3935.6	15.62
3840.9	24.021
3668.6	28.425
3448.2	30.594
3206.7	33.242
2968.1	41.881
2745.2	54.589
2523.5	67.956
2293.7	80.006
2056.7	87.596
1890.6	89.872
1881.6	88.091
2030.3	81.468
2217.1	72.691
2292.5	64.405
2198	58.549
1925.5	54.818
1574.8	53.46
1332.1	51.313
1340.9	46.487
1517.5	38.601
1663.7	29.069
1672.1	16.492
1536.5	6.3246
1284.9	9.2195
987.59	18.358
686.24	24.597
405.25	27.459
178.46	28.601
381.08	29.614
758.67	34
1144.6	41.11
1474.3	51.108
1702.7	59.414
1809.4	65.947
1796.3	68.007
1691.7	65
1523.3	57.983
1300.7	45.354
1040.8	30.083
743.91	14.866
422.86	11
156.17	22.825
236.62	33.242
389.13	40
428.18	40.719
348.86	37.014
217.89	28.653
302.54	15.811
564.01	2
806.84	13.342
962.28	26.401
999.88	36.715
931.89	43.186
788.21	46.174
619.68	43.417
479.52	37.216
408.85	28.862
369.63	18.111
323.31	11.705
272.68	14.213
231.33	21.26
235.32	26.077
257.41	28.862
266.19	27.074
264.76	21.932
279.21	13.601
314.73	6.3246
343.91	10
324.77	19.235
255.23	26.306
142.14	31.321
132	32.558
275.77	31.623
417.04	26.926
493.08	20.809
506.88	16.492
437.44	15.524
307.43	19.416
153.05	21.84
108.24	23.409
228.36	22.804
335.77	20.025
405.61	15.264
442.01	9.4868
461.05	5
476.79	6.4031
497.58	8.2462
521.29	10.296
534.06	11.18
533	10.817
511.48	11.705
474.77	13
415.45	14.56
351.26	15
280.26	14
210.43	11.402
166.96	8.2462
154.3	4.4721
162.75	6.7082
186.12	12.649
202.2	17.205
205	20.224
185.15	20.616
146.82	17.804
92.698	14.142
96.876	8.0623
5767.3	16.279
6582.3	19.799
7015.5	26.019
7007.2	33.287
6602.2	40.311
5914.5	46.098
5080.2	51.546
4258.6	57.628
3564.9	62.434
3064.8	68.659
2800.6	74.545
2767.2	80.062
2939.5	82.879
3287.9	83.487
3819.2	81.154
4515.8	76.026
5321.7	67.476
6100.4	57.009
6702.3	42.755
7000.4	27.803
6935.4	11.402
6549.6	6.4031
6018.1	19.105
5610.9	30.806
5558.5	37.577
5849.7	41.11
6250.7	39.115
6500.4	33.541
6452.4	25.179
6083.3	14.866
5470.3	6.4031
4726.4	11.314
3991.1	20
3400.4	26.401
3049.1	30.083
2971.2	31.385
3106.9	31.765
3341.2	32.985
3561	34.132
3693.6	37.656
3707	42.012
3605.9	46
3421.1	49.82
3172.4	51.42
2866.8	51.43
2492.9	50.695
2046.8	51.264
1554	53.226
1076.6	57.567
727.06	62.129
659.24	66.272
834.55	69.426
1057.5	69.857
1291.6	67.417
1511.7	63.246
1736.8	56.009
1979	47.707
2282.2	36.401
2685.6	25
3171.7	13
3661	9.0554
4055.7	18.974
4257.6	31.78
4218.6	44.294
3945.3	55.326
3500.5	64.444
3007.8	71.063
2606.2	75.961
2372.8	77.936
2262.2	79.057
2163.9	78.409
2014.5	76.922
1804.8	75.273
1582.8	72.422
1384.6	69.007
1208.8	63.812
1024.8	57.271
840.39	48.508
704.05	38.949
706.46	29.833
824.84	20.125
937.28	11.402
967.29	6.7082
893.55	8.0623
737.3	10.817
567.14	14.036
454.61	19.105
451.84	27.019
521.21	35.468
651.36	44.643
821.25	53.16
1026.5	58.694
1220	62.097
1351.8	62.586
1404.6	59.548
1368.9	53.488
1258.6	45.706
1106.6	36.069
935.09	28.071
751.71	22.627
557.68	23.345
365.41	26.627
189.81	30.067
116.43	30.806
178.31	29.155
207.33	24.515
162.23	19.105
84.593	14.142
210.6	13
424.27	17.493
646.69	22.847
824.04	27.166
941.31	31.064
982.06	32.45
946.84	31.575
843.52	27.659
679.9	22.204
490.75	14.765
286.42	6
116.28	2
123.98	9.434
210.52	15.264
246.34	18.248
232.49	18.682
164.45	16.401
82.462	12.53
61.612	8
94.578	3.1623
99.825	7
69.857	13.892
73.355	21.095
159.68	26.173
246.9	29.732
301.96	31.113
309.23	30.364
289.5	27.659
276.24	22.627
318.42	18.111
393.33	14.213
457.91	14
466.69	15.556
424.17	16.279
347.05	16.763
284.8	15.556
304.61	12.649
368.64	8.2462
414.85	3.6056
411.95	3.1623
360.1	8.9443
293.22	14
248.36	17.889
253.87	19.209
265.48	19.416
257.29	16.763
214.17	12.042
141.88	7
58.694	4
23.77	7.6158
62.65	12.369
77.058	15.556
58.189	17.088
38.328	18.111
47.434	16.643
63.071	13.892
54.818	11.045
45.222	7.8102
4527.2	16.031
5157.5	21.932
5642.1	29.275
5947.8	36.688
6061	43.417
5955.4	48.26
5647.3	53.141
5176.2	57.428
4620.5	63.285
4093	69.893
3735.2	75.717
3647.6	79.398
3809.8	81.025
4124.8	79.63
4477.7	76.118
4788.2	70.661
5067.8	62.936
5328.8	53.226
5577.3	42.107
5776.1	29.155
5839.3	15.811
5689.8	8.6023
5316.4	16.401
4855.5	27.203
4579.5	34.713
4777.2	38.419
5399.4	38.484
6127.5	34.015
6642.5	27.785
6744.7	17.889
6412.4	9.8489
5702	8.0623
4786.3	15.033
3854	22.472
3047.5	27.295
2491.2	32
2256.4	34.482
2433	36.715
2965.9	37.054
3620.5	39.205
4175.2	40.522
4445.4	43.658
4343.1	46.043
3880.3	49.01
3148.1	51.4
2314.3	54.708
1600.1	56.613
1190.8	57.801
1059.5	60.075
957.05	61.911
775.9	63.506
604.01	65.276
651.16	65.215
880.43	64.405
1159.7	61.033
1506.1	56.436
1971.9	48.549
2545.2	39.115
3119.1	28.178
3591.1	16.155
3887	8.2462
3986.4	18.788
3918.2	32.757
3743.6	45.967
3522.2	57.28
3268.2	65.734
2961.3	72.25
2598.9	77.492
2206.1	79.076
1886.4	79.025
1743.9	78
1761.2	76.42
1801.1	73.239
1745.6	70.214
1554.7	66.068
1274.2	61.057
996.46	55.946
837.9	49.01
833.73	40.817
886.47	33.121
938.27	24.021
997.22	15.811
1084.1	7.2801
1181.6	2.8284
1239.4	11.402
1228	19.105
1139.5	26.476
990.86	32.573
835.13	38.897
720.38	44.272
657.12	48.508
641.57	51.865
642.97	54.203
671.35	54.148
712.96	53.852
756.15	50.99
787.28	47.539
810.29	43.174
825.88	37.483
844.45	32.016
833.55	26.571
777.02	21.954
663.16	20.396
513.01	20
410.18	20.025
465.34	21.401
613.5	22.472
743.18	23.345
806.27	23.431
802.54	23.77
753.81	23.195
688.75	22.804
625.32	22.847
567.74	21.213
507.91	20.809
456.58	19.698
438.34	18.028
455.5	15.811
478.55	13.416
453.79	10.05
351.39	7.8102
199.12	6
5.099	6.4031
175	7.0711
307.92	9.2195
353.55	11.045
306.22	13
178.89	15
65.376	15.033
220.74	16.553
375.3	17.493
462.3	19.026
466.4	19.416
385.88	21.932
262.65	23.087
168.58	24.413
191.66	25.06
268.83	25.02
321.26	23.77
357.53	21.932
385.47	19.925
427.07	16.279
455.43	12.042
451.37	8.2462
414.38	5.6569
363.14	6.3246
348.55	8.544
396.43	11.18
444.16	12.806
468.13	13.928
447	14.036
396.21	13.038
347.93	12.083
336.62	10.198
353.17	8.6023
355.54	9.0554
322.98	9.2195
257.96	11.045
185.81	12.53
162.6	13.038
189.18	14.036
226.06	13.416
237.42	13.038
239.02	12
255.05	10.817
287.28	10.44
3544.6	29.614
4450.5	36.056
5183.1	40.804
5684.2	43.324
5942.4	46.098
6012.5	47.518
5934.1	48.384
5772.8	50.537
5541.8	54.406
5247.3	58
4916.2	62.434
4646.7	64.514
4557.8	66.272
4737.2	65.765
5098.7	64.078
5473	61.4
5717.4	57.009
5761.9	51.624
5631.4	45.1
5400.3	37.643
5159	29.069
4913.9	19.925
4636	14.422
4305.4	16.125
4010.4	21.26
3963.5	27.459
4325.3	31.321
5001.9	33.302
5701	32.202
6168.1	28
6260.1	21.024
5930.6	14.765
5272.7	8.9443
4449.3	11.18
3687.7	18.439
3156	25.495
2887.2	32.558
2788.6	39.115
2807	43.829
2990.4	47.074
3352.1	48.836
3799	49.406
4141.1	48.754
4223.8	47.17
3961	46.4
3352.7	47.434
2481.7	49.729
1487.8	55.172
552.08	59.908
497.12	65.307
1037.1	68.007
1378.5	69.971
1583.7	69.721
1789.5	67.683
2093.8	62.682
2464.8	56.036
2793.3	47.074
3006	36.674
3068.6	24.207
3035.6	13.153
2955.5	10
2889.5	20.809
2829.8	34.015
2727.6	45.695
2527.9	56.639
2212.7	65.46
1817	72.25
1418.3	76.059
1124.3	78.243
995.19	78.848
981.03	77.647
970.57	75.293
930.26	73.007
873.29	69.857
836.87	65.924
814.88	61.294
766.52	56.303
655.04	49.82
476.05	43.174
248.11	35
95.189	26.42
250.6	17.117
409.32	7.2801
519.58	2.8284
605.87	11.662
708.7	21.213
830.96	28.636
939.99	36.056
998.86	41.617
1014.3	45.607
1001.8	49.163
1025.2	50.99
1092	51.624
1183.5	52.393
1248.8	51.039
1249.3	48.703
1179.8	46.011
1076.4	42.048
972.88	38
896.31	33.106
832.94	28.601
739.01	25.179
591.9	21.932
425.91	19.723
349.11	19.026
464.81	19.416
634.04	20.125
748.92	22
788.1	23.259
751.6	24.083
683.37	24.352
638.15	24.021
630.8	23.259
639.37	22.672
622.08	21.19
561.71	19.026
468	17.464
381.84	14.866
343.89	12.369
343.64	10.44
337.82	8.4853
290.91	7.0711
192.04	6.4031
69.642	7.2801
66.31	8.544
175.9	10
235.14	12.166
239.35	13.601
197.72	15.62
109.04	17.464
20.125	19
135.44	20.125
259.56	21.26
362.82	22.136
448.04	23.195
498.02	22.825
510.54	22.804
492.16	21.84
443.1	21.095
373.08	19.235
304.06	17.804
243	15.524
211.95	13.153
187.96	11.402
168.76	8.544
155.29	7.6158
148.07	6.7082
162.02	7.6158
175.79	10
182.22	11.045
164.45	12.649
135.25	13.454
96.177	13.928
82.006	13.038
82.71	12.53
87.464	12.207
75.073	11.045
47.011	9.8489
18.385	9.434
33.615	9
70.257	10
86.977	11.18
98.899	12
121.49	13.416
149.28	14.213
183.08	14.56
4459.2	40.447
4533	42.19
4318.3	42.059
4143	41.677
4222.1	40.46
4444.9	38.21
4474.2	37.202
4107	38.079
3349.1	39.395
2479.5	41.761
2076.2	45.398
2381.7	47.096
2810.6	48.508
2936.7	49.193
2763.3	49.041
2614.5	49.041
2856.5	48.301
3376.9	47.297
3765.9	46.011
3747.7	43.966
3279.1	41.049
2549.9	36.401
2015	32.28
2080.5	27.295
2415.6	22.204
2544	18.028
2436.5	15.232
2512.2	15.652
3219.4	18.439
4315.2	20.518
5310.8	23.087
5850.7	25.179
5796.2	25.554
5189.5	26.401
4318.6	25.71
3710.3	25.495
3838.6	26.401
4487.5	27.295
5093.6	29
5317.1	32.202
5082	35.609
4448.2	41
3576.3	45.706
2643	51.313
1826.2	56.036
1244.7	60.638
954	64.498
916.15	66.648
1037.2	67.941
1219.9	67.624
1387.3	66.189
1476.1	64.031
1450.8	60.745
1318.3	56.223
1158.1	50.922
1119.5	45
1295.2	38.626
1582.9	32.527
1822	25.962
1923.3	20.616
1856.1	18.974
1671.9	23.259
1504.1	30.887
1487.6	40.05
1619.9	49.041
1753	57.385
1736.3	64.008
1529.6	70.036
1163.6	74.813
781.84	77.389
647.13	78.568
804.56	79.404
936.67	77.621
904.71	75.007
727.78	71.84
591.97	66.888
726.24	60.877
990.77	53.666
1167.4	44.721
1173.7	35.128
1011	24.352
773.49	14.422
647.08	4.4721
742.68	6
892.08	16.031
927.16	24.352
811.12	31.064
569.22	37.537
298.21	42.485
296.07	46.098
510.14	48.042
652.82	50.289
679.25	50.774
586.31	50.249
414.4	49.193
205.19	46.872
106.51	44.283
270.15	40.719
419.5	37.483
517.03	33.541
553.86	29.069
516.38	25.298
415.5	22.627
273.44	21.19
110.14	20.1
38.601	19.723
143.01	20.809
203.59	21.587
268.78	22.091
356.53	22.847
464.15	23.431
529.53	23.854
511.31	22.804
408.1	23
275.78	20.881
353.48	19.416
590.57	17.804
801.3	14.866
902.2	13.038
851.71	10.44
661.91	8.4853
377.22	6.3246
159.89	6.3246
343.46	6.7082
529.03	8
589.14	10.296
500.12	12.042
305.13	14.318
86.683	16.031
198.3	18.439
334.98	19.723
356.01	21.26
263.47	22.361
192.78	22.204
357.63	22.204
573.35	22.361
709.4	21.932
720.74	20.591
597.24	19.416
372.54	18.111
139.01	16.553
228.3	14.866
392.9	13.928
446.61	12
372.77	10.77
195.44	9.2195
35.468	9.2195
252.91	8.544
399.65	9.2195
436.59	9.2195
360.8	9.4868
193.69	10.63
27.295	11.18
224.38	12.042
359.45	12.649
397.42	12.806
332.06	12.53
190.59	12.166
12.207	12.166
166.31	11.662
285.95	11.402
322.8	11.402
279.02	11.045
206.01	11.18
162.23	11.402
183.86	11.402
3112.5	35.693
2602	14.036
1891.9	21.633
1273.4	41.773
1147.1	51.923
1422.1	50.448
1624.1	38.21
1592.4	15.232
1360.5	10.817
1107.4	35.228
1073.2	52.24
1222.8	58.181
1293.2	52.202
1125.9	35.693
694.94	15.297
228.27	19.925
758.84	41.677
1381.3	56.604
1775.8	61.033
1835	55.946
1545	41.34
1037.1	22.804
757.63	12.207
1124.6	27.731
1530.9	42.012
1591.2	50.09
1229.2	50.478
828.3	44.643
1563.3	35.847
2851.1	25.318
4042.8	15.811
4803.9	10.63
4929.6	10
4339.3	17.029
3152.6	28.16
1850.6	39.812
2024.5	49.729
3510.2	52.631
4869.9	48.374
5654.8	36.401
5726.6	24.515
5132.4	31.575
4063.2	53
2829.4	73.926
1825.5	85.147
1450.3	86.348
1527.8	75.313
1569.9	56.356
1519.6	41.593
1564.5	45.222
1759.5	60.828
1882.1	73
1732.1	74.216
1214.9	66.483
393.02	50.21
627.01	29.12
1567	10.05
2250.5	12.083
2521.4	22.804
2312.6	33.136
1675.3	43.417
856.9	54.148
821.09	61.62
1602.4	62.642
2196.1	55.731
2377.6	43.463
2114.4	38.328
1478.8	52.173
642.36	72.45
284.38	87.784
944.11	90.443
1314.8	82.298
1315.2	63.695
976.4	44.721
417.27	42.202
353.55	55.082
905.79	66.851
1259.2	68.964
1326.5	60.008
1084.7	43.046
612.21	21.932
193.31	3.6056
652.64	11.18
1087.1	16.492
1294.3	14.866
1231.9	19.209
926.42	31.145
466.48	43.863
208.08	50.488
611.66	47.539
929.19	36.069
1048	22.672
954.41	26.476
693.06	44.922
379.52	60.44
372.94	67.543
655.78	62
876.49	48.466
951.82	30.529
869.83	24.331
658.32	37.054
385	48.847
191.32	53.907
292.84	49.82
429.22	37.696
466.24	20
406.07	3.6056
309.34	13.601
297.07	25.08
391.08	30.806
468.26	32.757
456.53	30.529
330.18	25.495
124.35	18.601
225.29	10.198
513.18	7.0711
759.63	15.811
905.49	25.318
920.74	32.45
807.8	33.242
590.05	28.231
315.79	19.235
59.076	6.7082
204.68	8.544
344.62	20.248
386.22	28.792
340.31	33.121
247.1	31.575
186.27	25.612
215.65	16.125
266.1	5.099
274.37	8.6023
236.78	19.647
198.49	28.302
212.55	32.388
271.52	32.65
311.28	28.018
311.03	18.601
266.92	5.099
205.83	8.544
186.55	21.633
229.17	31.064
279.23	34.059
300.19	31.78
282.46	24.166
233.81	13
170.99	2.2361
123.71	12.53
122.8	20.881
147.03	25.942
165.41	26.249
167.62	23.707
147.87	19.235
116.97	16.279
84.386	11.705
84.528	9.0554
112.89	10.198
135.09	16.279
128.23	23.431
96.333	27.295
43.566	27.785
77.414	22.472
146.01	13.342
193.04	1
208.32	12
185.74	22.472
2459.9	58.592
2073	48.166
1536	43.382
1127.1	49.679
1177.6	59.304
1542.3	64.07
1869.7	61.4
2029.6	54.406
2004.4	50.931
1833.7	56.648
1564.1	66.219
1223	73.498
822.2	71.197
403.96	60.605
253.74	45.277
579.04	38.328
835.85	50.09
893.31	67.978
745.32	79.379
588.45	78.924
892.02	67.978
1486.7	46.819
2029.2	26
2324.3	29.833
2242.4	52.887
1745	70.711
949.12	81.345
850.15	80.324
1962.3	69.462
3112.9	51.42
3955.8	31.385
4301.5	20.248
4069.9	32.202
3260.9	49.649
1980.9	63.246
426.39	69.462
1257	68.884
2744.6	59.034
3892.1	42.638
4573.1	20.224
4740.2	11.18
4438.3	35.384
3795.4	59.54
3013.6	76.026
2375.6	83.355
2161.5	79.057
2332	63.812
2570.8	39.115
2647.9	12.728
2475.6	28.792
2051	57
1437.3	77.827
705.83	87.367
76.007	84.214
742.36	68.942
1277.4	44.598
1604.1	17.692
1699.2	27.203
1559.5	53.151
1233.2	73.539
794.96	83.869
429.26	83.187
581.61	71.169
966.86	50.21
1282.1	25.554
1444.1	17.117
1442.1	38.013
1282.2	57.271
1000	69.405
652.96	71.449
371.77	64.475
432.19	49.82
673.14	29.12
859.47	12.207
932.85	23.345
890.7	41.593
751.92	55
550.11	61.66
334.46	59.808
169.19	50.249
178.64	36.056
288.79	19.416
382.39	15.62
454.09	28.844
490.73	42.202
491.93	49.82
465.02	51.245
435.79	46.669
457.09	35.735
548.23	22.023
660.91	9.2195
739.5	16.125
747.53	29
681.57	39.56
582.22	45.398
539.91	44.407
629.93	37.577
794.4	26
922.12	11.18
955.91	10.296
871.45	24.413
677.02	35.847
443.94	43.012
363.41	43.417
541.69	37.736
748.42	25.02
862.85	9.4868
843.48	9.0554
692.65	24.739
442.23	36.125
141.95	42.059
172.65	39.812
396.45	31.145
520.53	17.088
517.18	2.2361
412.39	16.643
284.29	29.155
318.23	37.162
491.25	38.013
639.08	32.14
697.82	21.024
658.92	7.2111
549.22	8
442.83	20.248
438.63	28.653
517.1	32.062
574.42	30.232
551.01	23.259
441.13	13.038
283.93	2.2361
242.06	9.2195
401.68	17.72
577.44	22.672
685.34	24.331
699.49	22.847
624.05	19.416
486.88	13
327.27	5.831
236.48	2
279.4	8.2462
358.73	14.866
401.62	18.682
392.46	21.587
337.54	21.213
257.12	17.72
193.01	13.153
198.98	6.3246
249.93	5
293	12.806
302.65	20.591
279.3	25
251.1	25.942
252.96	23.022
299.88	16.125
347	7.0711
364	5.099
339.45	13.601
298.86	21.26
280.12	25.298
327.1	24.515
397.43	20.518
437.11	12.369
417.53	3.1623
349.52	6.4031
271.06	14.318
260.86	19.698
2957.4	57.219
3750	59.076
3954.4	62.626
3608	66.761
2971.8	70.803
2610.6	74.007
2948.2	77.201
3665.4	80.324
4271.6	86.4
4546.1	93.6
4463.5	101.08
4112.6	103.32
3633	99.85
3189.9	92.785
2967.2	86.313
3059.4	86.209
3365.4	93.005
3628.4	102.62
3608.3	106.44
3159.1	100.57
2293.5	85.615
1367.7	66.038
1631	53.759
2782.9	59.841
3713.8	75.664
4015.7	86.006
3548.5	84.812
2415	71.568
1428.7	48.384
2506	19.849
4259.7	8.0623
5586.6	28.178
6121.7	39.408
5766.9	40.262
4763.6	34.132
3811.6	33.541
4017	44.407
5228.4	55.731
6334.8	59.641
6692.9	50.99
6055.7	29.275
4480.7	5.3852
2237.2	40.224
297.47	75.007
2555.5	99.045
4218.4	107.91
4980.6	99.459
4757.1	74.061
3669.1	40.311
1997	36.878
407.07	71.84
1628	104.1
2709	121.7
3044	118.87
2623.2	97.165
1695.8	62.201
1234.3	31.765
2181.9	51.614
3241.8	85.288
3805.3	108.45
3722.7	112.16
3109.5	98.061
2429.4	67.882
2474.9	28.443
3261.4	13.038
4031.5	48.836
4336.6	71.84
4078	80.05
3384.7	72.471
2671.7	54.203
2508.9	33.106
2951.3	27.659
3404	39.661
3494.5	48.166
3145.4	46.615
2517.2	36.878
1995.8	28.231
1968.5	36.401
2271.1	52.355
2456	63.388
2337.2	63.246
1986.1	50.931
1707.4	27.203
1807.2	3.1623
2149	32.802
2404.2	56.719
2421.2	71.868
2279.7	73.6
2217.9	61.131
2413.9	39.661
2755.4	15.297
3000.3	25.495
2996.3	48.166
2769.5	63.127
2499.1	67.72
2450.6	59.481
2670.7	42.012
2932.3	19.105
2991.5	10
2766.4	29.069
2333	43.417
1935.1	49.041
1878.1	45.793
2128.3	35.511
2342.5	21.213
2307.9	6
1989.1	8.544
1513.9	19.235
1189.7	25.495
1301.6	27.785
1609.2	27.586
1769	24.597
1662.7	20.396
1343	13.038
1031.3	5.099
1070.2	8.0623
1394.6	17.72
1707.6	25.807
1824.9	29.53
1730.5	29
1498.9	22.825
1265	12.53
1147.5	3
1140.2	13.038
1120.3	22.804
1009.4	28.231
809.3	29.069
629.49	24.698
635.02	16.643
778.69	6.3246
889.68	4.2426
883.96	14.422
751.81	20.396
521.51	23.345
274.45	24.187
187.02	22.023
315.39	17.464
406.83	12.166
416.35	5.3852
351.64	6.0828
259.21	14.142
211.98	21.024
242.71	25.495
281.94	27.203
288.92	24.515
258.12	16.279
223.62	7.0711
211.62	6.7082
237.13	18.028
268.79	26.627
271.45	31.064
247.43	30.414
197.69	25.06
140.6	15.133
118.85	5
165.37	11.18
219.75	20.248
245.57	25.495
236.88	26.907
196.49	23.087
129.4	16.279
76.026	6.4031
94.085	3
143.09	10.198
168.24	15.811
154.92	17.493
4671.6	64.281
5730.7	68.68
6240.6	67.476
6011.7	62.626
5234.4	58.078
4486	63.135
4490.1	76.968
5238.4	93.301
5967.6	105.31
6139.9	109.59
5586.9	105.95
4443.6	97.046
3131	88.566
2410.2	88.119
2700.1	96.897
3191.8	108
3288.2	114.56
2859.7	112.36
2035.3	101.21
1042.1	84.481
271.23	69.354
863.92	65.146
1479.7	71.84
1925.3	80.623
2186.3	85.094
2182.6	78.746
1812	65.215
1096.6	46.043
825.36	25.612
1975.1	15.556
3314.2	21.095
4378.9	27.514
4969.1	26.306
5065.6	20.248
4915.5	17.263
4961.3	24.021
5469.6	33.526
6213.6	37.483
6710.7	35.903
6604.3	28.302
5758.8	21.587
4276.8	32.016
2558.7	50.931
1712.1	68.184
2668	79.076
3749.4	81.707
4243	74.632
4050.1	62.169
3260.1	53.852
2103.7	58.138
909.47	72.945
688.52	87.298
1432.9	94.366
1926.5	92.022
2060.5	81.566
1890.4	66.03
1565.9	57.14
1375	61.294
1630.8	73.348
2226.5	83.006
2834.6	85.44
3253.5	77.201
3412.5	60.465
3363.9	41.231
3315.7	28.16
3500.4	34.54
3935.9	45.618
4383.2	51.43
4603.7	49.366
4488.3	39.408
4099.7	23.707
3660.4	7.6158
3462.2	10.296
3559.9	20.396
3712.1	23.77
3648.5	19.209
3270.6	8.6023
2665.2	7.2111
2107.7	22.672
1945.9	36.139
2137.3	43.174
2315.3	43.841
2244.5	37.483
1922.3	25.807
1487	18.385
1200.1	27.295
1259.3	42.202
1515.4	53.009
1739.9	58.009
1868.1	54.083
1892.9	44.944
1837.2	33.242
1731.9	27.586
1714.7	34.176
1928.6	44.385
2387.5	50.695
2875.5	51.856
3218.9	45.177
3311.7	34.67
3169.4	22.091
2955	17.088
2892.8	23.345
3071.3	31.016
3333.1	34.986
3453.1	34.482
3312.3	29.069
2960.9	20.248
2581.4	11.402
2431.9	3.6056
2539.4	4.1231
2678.2	9.4868
2645.4	13.416
2387	17.205
2031.1	20.616
1811.9	22.472
1862.3	22.023
2013.2	18.358
2050.4	11.18
1860.5	5
1470	10.296
962.96	19.235
490.22	24.839
208.37	27.857
202.41	26.306
213.77	22.023
300.74	14.56
514.44	7.0711
721.34	8.6023
836.26	14.318
869.2	19.799
922.69	20.881
1089	20.224
1323.9	16.643
1495	12.207
1508	6.0828
1362.2	1.4142
1148.5	4
1068.4	8.0623
1216.9	12.728
1420.5	15.652
1519	17.029
1432.1	18.385
1233.8	15.62
1084.7	12
1125.3	8.0623
1266.8	9.8995
1343.5	16.125
1259.2	21.213
1037.3	24.331
801.83	24.597
719.8	22.361
794.72	17.72
848.73	13.601
782.61	14.213
601.31	18.439
460.67	22.204
536.97	22
707.28	20.809
792.05	15.811
750.24	10.296
631.83	7.0711
584.35	8.2462
665.51	10.817
778.72	11.705
812.2	12.042
721.34	9.8489
7888	53.009
7876.2	58.822
7612.9	63.063
7100.2	67.535
6463.4	71.784
5794	77.389
5114.4	84.504
4389.6	91.548
3545.3	97.046
2558.1	101.39
1473.7	103.17
443.72	102.96
780.92	101.41
1630.5	100.04
2315.2	98.311
2872.7	97.329
3328.1	95
3703.4	92.418
3988.8	89.006
4135.6	85.235
4156.7	80.654
4112.1	76.538
4095.8	73.007
4195.3	71.281
4395.6	69.584
4593.2	66.603
4696.3	62.008
4670.1	56.851
4565.3	47.676
4457.4	38.588
4415.9	28.636
4423.8	19.209
4409.4	12.369
4310.3	9
4126.1	10.05
3963.3	13
3948.1	17.692
4124.6	26.173
4363	34.409
4497.7	42.579
4402	49.82
4064.7	55.145
3619.5	58.728
3337.5	61.008
3452.6	63.032
3878.1	65.376
4313.8	66.03
4511.2	67.186
4357.3	67.119
3858	67.082
3159.2	66.708
2494.4	65.605
2178.3	66.068
2280.8	66.483
2525.3	69.26
2644.6	71.61
2563.8	74.953
2331.2	76.942
2032.2	78.186
1801.8	76.896
1737.6	74.243
1873.4	69.921
2221.2	65.765
2726.5	60.729
3283.5	56.798
3788.1	52.202
4160	47.927
4364.1	41.231
4423	34.176
4405.4	26.833
4378.6	20.396
4374.5	14.213
4345	10.296
4233.5	10.44
3986.3	13.038
3614.1	15.811
3164.8	18.682
2746.4	21.471
2426	22.804
2221.6	23.601
2054.3	24.021
1864.3	22.672
1624.2	21.587
1362.9	21.541
1124.5	23.324
952.69	25.179
894.85	28.284
955.01	33.136
1148.4	38.275
1427.8	42.72
1753.4	46.519
2066.8	48.847
2337.6	50.329
2565	50.99
2766.3	50.922
2971.3	49.659
3172.1	49.041
3352.2	46.098
3465.8	43.658
3501.1	39.395
3443.1	33.838
3325.7	29.069
3183.6	23.087
3058.2	17.493
2958.7	12.042
2861.4	8.0623
2734.9	5.831
2568.7	8.6023
2362.1	12.53
2152.9	16.125
1985.2	17.692
1872.9	19.026
1800.6	19.105
1740.1	19.026
1656	18.439
1547.3	18.028
1426.2	16.279
1289	14.142
1152.1	11.18
990.39	8.6023
813.59	7.6158
647.15	8.0623
551.36	10.77
546.94	13.038
588.54	16.125
608.84	19.209
580	21.095
549.59	22.672
619.16	23.022
784.62	22.672
971.63	22.023
1109.5	19.849
1146	18.111
1083.4	15
941.29	12.166
777.2	8.6023
683.19	5
712.97	1
811.47	4.4721
878.68	8.0623
874.73	12.166
803.23	15
704.36	17.263
622.59	18.868
620.02	20.616
673.03	22.472
724.88	23.77
739.27	23.854
693.47	24.331
590.58	22.804
471.3	21.024
384.53	19.105
368.23	17.029
387.24	15
399.54	14.56
356.19	13
271.06	12.207
194.59	11.045
238.14	11.18
346.47	11.18
432.78	11.18
462.93	10.63
440.03	11
401.67	10.63
386.9	10.05
417.92	9.434
7971.4	53.935
7971.3	64.405
7847.1	72.897
7562	79.429
7103.2	83.738
6478.9	86.023
5716.6	88.6
4810.2	89.286
3814.8	90.824
2756.3	92.087
1675.8	94.005
648.53	95.415
560.7	97.17
1497.3	98.478
2378.5	99.005
3157.7	99.639
3772.1	97.944
4201.5	96.602
4430.7	93.557
4483.9	89.939
4456.6	85.376
4459.1	80.777
4569.2	75.24
4769.9	70.214
4969.8	64.351
5071.2	59.666
5029.9	54.083
4888.7	50
4729.2	45.044
4642.4	40.224
4614.7	33.242
4570.2	26.833
4417.6	18.682
4122.4	12.042
3762.6	10.63
3548.7	16.125
3656	24.021
4046.6	31.113
4481.9	39
4736.4	46.011
4712.4	51.245
4438.9	56.303
4069.7	59.135
3841.3	61.033
3907.4	62.008
4181.6	62.201
4431.9	61.717
4475.4	62.434
4225.3	64.008
3705.7	64.9
3041.2	67.779
2406.3	70.093
2020.7	71.84
1943.8	74.061
2022.9	75.452
2075.2	76.217
2036.7	74.726
1948.4	73.11
1888	71.449
1930.1	68.884
2088.5	65.765
2339.1	64.498
2664.4	62.241
3062.7	60.671
3489.8	59.682
3898.1	56.921
4226.6	53.712
4432.6	49.769
4482.3	44.011
4416	36.77
4249.7	29.53
4037.6	22.091
3833.6	19.235
3642.6	19.849
3460.1	22.361
3268.4	25.942
3039.9	26.926
2776.3	27.313
2486	25.298
2207	22.472
1979.8	18
1823.5	13.928
1732.3	12.53
1656	16.279
1566.8	23.409
1449.6	30.083
1305	36.62
1179.4	42.19
1115.8	47.381
1177	51.157
1365.5	52.431
1655.5	53.16
2010.1	51.264
2382.7	48.549
2742.6	45.044
3064.2	41.4
3311	38.897
3479	36.688
3571	35.609
3587.8	35
3556.6	35
3484.5	33.242
3383.9	30.463
3250.4	27.295
3090.9	21.378
2906.2	14.213
2700.8	7
2488.3	1.4142
2293.5	8.0623
2101.9	14.213
1950.2	18.111
1821.2	22.023
1727.7	25.08
1647.4	26.249
1580.1	27.166
1517	25
1437.8	21.378
1320.9	16.643
1170.2	10.44
981.52	4.1231
769.66	2
587.22	8.0623
490.24	13.601
488.36	17.889
559.36	22.136
613.18	24.166
642.48	26
670.05	26.249
728.82	24.698
815.28	22.204
912.76	19.105
989.05	16.125
1012.4	12.53
982.17	10.296
905.95	8
796.9	7.6158
690.02	6.4031
621.27	5.831
616.6	5.099
659	5.099
723.48	7.0711
779.42	10.44
807.16	14.213
801.13	17.117
772.21	20.248
741.69	23.77
722.18	25.495
724.03	26.926
731.38	27.857
725.91	28.178
679.61	26.683
600.72	23.431
488.42	19
381.43	14.422
316.74	10.296
307.42	7.0711
330.64	7.0711
340.35	9.2195
334.57	11.314
317.97	14.036
307.98	15.62
332.04	16.492
363.32	17
393.1	15.232
404.52	12.649
395.89	9.434
7479.4	64.761
7576.7	75.027
7604.2	80.709
7519.1	83.006
7287.6	82.662
6896.6	81.025
6318.5	78.313
5557.1	78.23
4596.8	80.777
3460.2	87.367
2215.8	94.705
1053.7	102.3
1066.4	108.34
2105.5	110.31
3100.4	108.81
3846.8	104.31
4324.1	97.494
4564.9	90.427
4654.3	82.152
4683.8	77.473
4708.9	74.653
4732.1	74.733
4715	75.69
4644.1	76.368
4507.6	75.432
4354.7	72.125
4248.9	65.947
4257	55.579
4391.7	45.188
4600.7	33.838
4802.2	23.022
4877.8	13.416
4761.3	7.2111
4427.5	2.2361
3921.1	2.2361
3413.7	5.831
3168.4	11.18
3346.1	19.026
3813.9	28.601
4305.1	39.56
4626.1	49.244
4720.9	58.728
4636.8	65.765
4477.6	70.264
4361.8	71.561
4324.4	70.029
4312.4	65.765
4228.7	61.294
4002.3	57.706
3606.4	57.009
3095.9	59.034
2548.3	63.071
2067.2	69.116
1733.8	75.166
1600.5	80.056
1623.4	82.389
1731.4	82.006
1880.1	80.411
2035.2	76.118
2191	70.292
2372.7	65.192
2573.9	60.531
2817.4	56.613
3082.8	54.562
3371.3	53.151
3661.3	52.202
3953.9	50.922
4207.1	47.802
4421.8	44.407
4541.7	39.115
4563.3	33.302
4444.2	27.295
4200.9	24.166
3851.3	24.413
3446.5	27
3027.2	31.241
2650.8	34.132
2356.5	36.125
2155.6	34.015
2041.4	30.61
1991.2	24.515
1962.5	16.553
1928.2	7.0711
1854.3	6.7082
1733.3	18.248
1576.5	29.967
1382.8	41.146
1177.3	51.196
1009.3	58.258
965.86	63.008
1140.6	64.203
1516.9	61.847
1989.8	56.08
2481.9	48.26
2925.1	39.051
3280.8	30.083
3514.4	25.807
3637	26.907
3647.6	32.894
3593.3	38.639
3499.9	43.863
3384.3	46.174
3262.8	45
3135.9	41.773
3001.4	35.228
2846.4	27.074
2666.9	18.868
2476.7	16.279
2277.6	20.248
2091.3	28.018
1943	35.609
1851.5	40.311
1799	41.4
1769.1	40.311
1721.7	36.401
1643.1	29.428
1507.3	21.954
1324	14.765
1105	9.4868
860.87	12.083
635.09	18.028
463.61	23.345
389.49	27
432.56	29
522.01	27.166
610.61	24.187
701.92	18.788
774.14	13
843.72	9.0554
890.05	10.198
918.73	14.765
920.25	18.358
893.6	21.213
854.36	21.932
800.03	22
747	19.105
700.59	15
673.59	10.817
671.33	7.0711
686.21	9.2195
722.17	15.297
755.15	20.248
795.87	24.331
829.61	26.907
844.3	28.071
843.65	28.018
820.08	26.571
777.71	24.739
722.8	21.932
646.59	19.647
568.59	17.464
490.25	16.401
419.07	15.264
350.41	15.133
298.73	14.56
269.36	14.213
261.91	13.416
264.62	13.038
281.01	13
313.73	12.042
347.18	11.402
379.08	11.402
403.84	9.8995
415.74	9.4868
420.04	8.2462
413.24	7.8102
7506.6	57.245
7738.2	71.197
7921.2	82.219
7938.6	89.493
7722.3	92.763
7247.7	91.049
6473	85.866
5469.9	80.225
4288.3	76.903
3029	78.772
1824.1	87.046
976.41	97.499
1230.9	108.3
2009.9	114.06
2744.6	116.47
3341.6	112.02
3796.8	102.86
4134.6	91.831
4361.7	79.404
4505.9	71.007
4580.7	68.68
4607.7	72.111
4597.1	78.492
4603.1	82.873
4673.7	83.217
4825.7	78.102
5025.6	68.884
5193.3	55.362
5229.3	41.11
5078.4	27.514
4727.7	16.125
4259.6	12.369
3837.8	13.038
3574.2	11.402
3518.6	7.2111
3538.8	3
3515.1	13.038
3408.7	24.413
3332.2	36.401
3412	48.052
3724.2	56.569
4180.3	62.097
4626.5	65
4957.5	65.192
5108.4	63.561
5106.6	62.032
4957.5	61.351
4688.9	61.847
4303.6	63.632
3793.9	64.777
3172.5	65.513
2486.1	67.119
1809	68.007
1300.7	70.093
1174.3	73.682
1441.6	77.698
1852.9	79.612
2253.4	81.498
2544.9	79.48
2663.6	75.073
2568.4	69.642
2298	61.66
2054	55.073
2194.9	50.249
2847.6	49.244
3728.7	51.01
4553.3	51.894
5154.1	51.865
5430.6	49.01
5355.8	44.688
4968.6	38.21
4355.3	33.242
3642	30.15
2973.9	29.155
2504.8	30.364
2350.4	31.765
2466.1	30.806
2680.4	29.732
2863.2	26.476
2928.9	21.84
2851.9	17.804
2638.6	14.866
2318.4	13.601
1909.8	14.422
1438.1	17.493
937.9	24.042
581.8	33.015
760.26	42.485
1237.6	53.009
1681.5	61.205
1992.9	66.648
2124.7	68
2116.6	65.276
2068.8	58.258
2165.8	47.127
2500.6	33.734
3008.2	20.125
3528.2	15.133
3955.2	26.173
4218.7	38.588
4263.3	49.659
4110.2	56.089
3770.2	57.489
3304.3	53.009
2775.9	45.967
2288.3	36.222
1951.7	28.231
