3706.5	65.97
1986.8	85.604
2130.6	102
4262.4	112.07
6457.2	112.95
8248	104.29
9400.8	88.091
9843.5	67.067
9632.8	44.822
9012.8	27.074
8450	14.866
8475.6	5.099
9322.2	6
10713	20.809
12121	38.626
13117	56.089
13424	70.036
12919	77.201
11603	76.688
9601.6	67.801
7122.7	55.227
4450.2	42.72
2078.2	37
1801.4	41.485
3312.3	48.01
4489.6	53.852
4995.8	56.639
4819.5	54.571
4059.2	49.041
2923.6	43.186
1866.3	34.525
1884.1	25.632
2885.9	15.62
3929.1	5.3852
4645.5	7.0711
4920.4	19.313
4766.2	31.401
4210.9	42.45
3365.6	51.196
2361.3	56.462
1334.5	58.669
415.43	58.694
440.41	56.727
989.66	52.01
1362.1	46.228
1592.6	37.363
1747.1	25
1866.6	10.77
1959.4	15.556
1991.6	34.482
1944.9	54.037
1826.2	69.354
1739.4	80.777
1808.3	85.006
2093.5	85.147
2514.9	81.707
2911.4	77.492
3171.9	75.472
3227.5	79.076
3064.4	85.796
2723.1	93.343
2344.7	97.129
2177.3	95.383
2420.7	84.006
2990.3	64.846
3630.5	38.184
4160.3	18.028
4459.1	36.139
4483.8	61.131
4216.4	79.925
3669.7	87.207
2905.9	84.012
2005.1	72.346
1126.8	59.682
835.22	53.712
1460.5	57.801
2218.2	65.253
2816.3	67.231
3197.6	61.855
3332.4	51.245
3242.5	35.735
2969.2	22.472
2634.1	13.038
2403.5	8.6023
2453.3	2.2361
2807.2	8.9443
3290.2	23.087
3710.5	38.079
3965.1	50.448
3965.7	58.052
3703.1	60.083
3199.9	55.227
2543.2	47.074
1911.6	36.401
1657.1	26.87
1994.2	18.974
2606	16.125
3171.4	16.125
3555.5	19.723
3694.9	25.02
3585.7	29.53
3268.1	34.67
2813.8	37.054
2332.3	38.484
1945.3	40
1768.5	41.304
1791.2	44.777
1882.5	49.406
1927.3	54.231
1861.1	60.926
1664.7	66.068
1369.6	69.857
1013	72.007
634.04	72.201
338.78	72.346
387.42	73.164
666.2	75.107
941.7	76.844
1184.7	75.743
1366.2	72.236
1476	65.276
1505.1	56.303
1441.4	46.53
1278.3	39.013
1035.3	34.176
742.45	34.205
498.22	39.661
466.65	47.854
651.22	56.515
858.3	62.482
991.83	65
1028.1	62.129
994.24	54.589
941.43	43.417
936.42	33.242
1041	24.515
1215.6	20.224
1395.5	19
1523.6	18.028
1554.7	14.866
1486.4	11.045
1306.9	9.2195
1058.1	9.2195
768.9	10.63
507.59	11.402
384.77	12.042
441.5	13.928
541.18	14.213
593.31	14.765
560.77	13.038
469.73	10.44
322.02	7.2111
178	4.4721
103.35	6.3246
185.8	8.6023
260.02	12.649
293.14	15.811
271.27	18.601
219.11	21
142.8	22.472
84.504	22.361
107.82	20
160.96	17.464
199.47	14.866
253.81	14.422
310.64	14.318
3660.4	84.345
2263.8	110.06
1007.2	127.53
2740.9	134.17
5401.5	129.19
8033.2	114.07
10218	92.801
11633	67.469
11982	42.19
11198	19.235
9472	5
7468.1	22.023
6734.7	38.328
8406	53.075
11281	63.506
13933	67.119
15577	64.203
15845	56.321
14613	47.096
12026	44.011
8426.3	48.374
4348.8	53.141
1324.6	54.203
3911	50
6488	43.382
7862.2	39
7901	41.437
6683.4	48.662
4499.2	53.935
1956.7	55
1964.7	49.244
4370.7	38.639
6335.9	25
7438.5	13.038
7568.3	16.279
6794.6	28.284
5321.1	39.051
3464.9	49.041
1657.6	56.036
1206.2	60.745
2279	63.561
3122.5	62.936
3502.6	60.166
3475.6	53.367
3177.6	43.417
2758.7	30.017
2280.7	16.553
1774	12.083
1347.7	23.77
1462.9	37.216
2258	48.6
3290	58.052
4217.8	64.56
4820	69.311
4951.8	73.082
4522.5	77.13
3557.7	82.735
2169.3	88.769
631.31	94.921
1343	99.765
2842.9	101.41
4000.5	97.417
4632.5	87.727
4703.7	71.063
4252.8	48.508
3427.1	22.672
2581.4	5
2260	30.676
2749.8	52.345
3489	66.94
4006.7	75.286
4108.5	77.897
3734.3	73.824
2911	67.978
1722.2	60.374
325.01	55.317
1152.4	50.606
2511.3	49
3610	46.043
4319.6	42.544
4560.8	36.222
4294.1	29.682
3577.6	22.472
2523.5	17.263
1543.8	13.342
1726.4	13.454
2849	16.492
3947.9	22.847
4702.3	32.45
4949.2	41.049
4652.9	48.754
3846.1	52.802
2629.9	53.151
1272.5	48.052
965.14	41.34
2180.1	32.558
3295.1	26.627
4033.8	24.597
4304.8	24.739
4109	26.173
3535.1	25.239
2733.1	26
1985.9	26.683
1686	29.698
1960.5	34.785
2376.8	41.195
2621.2	49.649
2606.2	57.385
2324.3	64.622
1837.7	70.029
1228.9	71.47
613.02	71.61
281.58	69.814
640.94	68.029
989.43	68.25
1210.2	70.114
1311.5	72.45
1294	73.246
1173.2	71.694
992.5	67.742
802.23	62.37
709.22	55.758
805.75	49.041
1014	45.188
1207.1	42.755
1299.1	44.045
1244.5	46.174
1032.7	48.826
689.22	52.202
286.9	54.406
385.1	55.082
833.72	53.712
1228	50.21
1497.1	43.863
1594.9	35.128
1533.4	26.476
1342.6	18.682
1108.8	16.279
951.35	17.263
988.45	19.698
1152.6	19.849
1295.9	17.464
1348.9	14.318
1266.6	11.18
1048.1	8.544
735.03	7.2111
361.96	6.0828
26.401	6.0828
357.2	9.0554
602.97	12.369
743.27	13.601
758.24	13.038
660.26	9.4868
495.31	6.7082
310.06	9.434
244.4	16.279
354.23	22.847
476.06	26.077
528.36	26.627
522	24.597
485	20.025
458.94	14.765
504.9	9.8995
601.63	8.4853
681.72	10.63
700.33	14.318
2892.5	96.026
2373.6	111.36
1074.9	119.08
1295.1	117.21
4254.2	110.11
7530.3	97.494
10526	82
12653	65.795
13437	50.912
12624	35.355
10295	22.847
7095.1	17.692
5268.5	27.731
7685.3	44.822
11694	60.415
15081	72.062
16996	76.059
17106	70.605
15410	56.886
12206	35.693
8012.7	15.033
3593.7	25.612
1911.4	45.804
4888.8	58.052
7098.9	60.44
7963.6	50.931
7469.6	31.305
5839.5	15
3437.3	31.064
949.97	54.626
2244.5	69.405
4442	72.028
6011.5	63.6
6750.3	47.096
6679.9	36.77
5885	47.202
4547.5	68.411
2911.9	84.876
1229.3	91.049
478.52	84.629
1632.9	68.447
2452.5	46.011
2852.3	26
2899.4	26.926
2693.1	38.833
2357.5	45.607
1955.2	43.278
1480.3	31
1014	14.56
1089.8	22.804
1919.8	48.466
2987.6	72.111
3955.3	91.81
4627.7	103.08
4818	105.21
4454	98.087
3539	83.054
2178.1	68.622
720.56	63.977
1370.8	74.33
2816.4	91.4
3909.6	104.74
4485.6	108.27
4495.1	98.737
4024.4	79.404
3263.3	54.918
2632.8	41.037
2577.9	54.12
3060.8	77.466
3614.5	94.021
3903.2	99.81
3797.8	94.366
3285.5	77.987
2429	57.775
1352.2	38.471
440.3	31.575
1258.5	38.118
2303.9	47.539
3152.2	53.339
3718.8	56.294
3964.6	57.14
3875.7	57.489
3490.3	54.378
2872.9	47.854
2219.8	35
1962	16.279
2421.6	8
3265.5	29.53
4059.4	50.448
4569.1	65.605
4635.4	74.007
4197.7	74.653
3270.2	67.469
1946	53.235
641.39	35.735
1550	16.401
2987.9	11.045
4109.4	27.731
4706.4	43.324
4722	53.339
4163.9	58.421
3168	55.227
1954.6	44.922
1104.2	29.155
1592.9	16.492
2449.6	31.241
3000.3	54.424
3130.9	74.545
2846.2	86.608
2230.3	88.566
1415.1	79.025
547.37	60.926
317.27	39.446
937.95	34.234
1379.8	54.037
1596	77.492
1608.4	92.655
1460.9	96.208
1168.2	87.207
806.94	68.447
527.21	46.615
608.49	36.401
942.1	48.052
1229.7	64.885
1386	74.277
1369	73.389
1183.1	61.074
876.18	43.012
529.6	28.284
324.86	35.693
515.45	54.009
807.09	67.119
1071.4	70.803
1296.7	64.195
1458.1	50.249
1552.8	30.364
1518.8	11.662
1357.3	19.026
1091.7	33.971
848.41	42.012
853.16	44.045
1097.6	40.447
1352.8	31.401
1473.9	22.023
1384.7	15.524
1098	17.088
680.8	21.932
364.18	27.295
587.31	30.529
940.48	31.321
1152	29.547
1179.8	25.06
1020.3	21
789.02	19.925
610.33	25.456
630.54	32.249
759.12	36.235
831.36	37
800.67	31.401
701	22.136
593.86	9.0554
544.54	6.3246
563.3	19.026
539.59	29.411
444.21	33.615
311.42	33.377
614.47	77.162
300.71	104.74
799.24	126.37
2305.8	139.86
4510.9	140.73
7105.7	127.44
9608.9	102.16
11515	68.118
12326	30.676
11694	15
9495.8	37.59
5998.9	52.498
2801.6	53.759
5559	44.102
10244	33.541
14175	41.231
16601	60.638
17164	74.148
15827	75.432
12884	62.298
8848.4	37.336
4428.5	14.318
1145.8	35.468
3641	63.388
5909.8	78.032
6965.3	76.694
6869.8	60.729
5858.1	33.838
4220.2	24.083
2205.6	53.151
339.68	80.156
2277.7	95.603
4345.5	97.046
6050.3	87.361
7147.5	77.337
7424.4	79.624
6787.1	93.52
5278	105.69
3106.5	107.54
660.34	93.434
1783.1	66.219
3680.9	29.967
4821.3	13.038
5068.1	44.721
4453	68.066
3183	75.452
1540.8	66.483
463.44	45.541
1799.8	23.022
2896.5	36.878
3538.1	65.513
3763.5	90.022
3697	103.45
3468.1	106.02
3167.4	99.202
2828.9	87.023
2384.5	77.466
1773	73.082
936.59	77.473
263.21	85.212
1328.6	92.201
2477	95.079
3426.5	90.802
4007.5	80.808
4072.4	65.513
3647.8	50.22
2946.9	45.398
2579.7	55.543
3112.1	71.309
4082.3	83.726
4843.5	89.275
5036.4	85
4542.3	72.498
3454.6	54.009
2080	37.483
1392.6	32
2313.3	43.046
3412.3	56.462
4150	64.815
4471.8	67.268
4508.1	63.135
4407.9	54.626
4221.4	42.202
3896.4	28.018
3372.1	14.318
2813.4	5
2702.8	14.866
3341.6	26
4247.9	36.401
4900	44.944
4977.3	51.624
4367.9	55.606
3111.4	56.798
1424.2	54.009
673.97	46.957
2354.5	34.205
3745.4	16.492
4547.7	7.0711
4712.1	31.064
4247.8	53.339
3302.4	69.08
2069.1	75.286
751.42	69.635
564.65	51.42
1548.7	24.166
2242.3	21.401
2591.4	55.227
2611.9	85.088
2356.2	103.24
1886.3	106.53
1327.6	91.788
801.94	63.071
596.44	24.739
814.6	22.023
1108.9	60.208
1336.4	89.022
1523	102.46
1640.9	100.08
1697.9	81.413
1660.8	52.402
1530.7	22.672
1360.9	29.12
1280.9	52.469
1333.6	68.659
1471.4	71.61
1539.7	62.968
1463.3	45.88
1208.4	28.16
816.84	24.839
468.48	39.661
639.08	53.759
1080	62.65
1478.1	65.123
1735.9	59.775
1821.9	48.918
1728	33.541
1463	15.033
1071.7	4.4721
687.79	22.672
627.2	38.079
939.12	46.573
1252	47.381
1411.2	40.522
1361.5	27.857
1142.3	11.402
816.05	11.18
586.6	26.306
660.44	36.715
855.24	39.812
974.89	36.878
947.6	28.018
797.63	18.385
612.43	16.763
485.88	25.495
498.76	34.132
533.34	38.079
530.48	36.497
449.36	29.833
339.78	20.616
224.24	11.045
181.01	4.2426
261.81	10.05
403.12	16.155
565.45	19.849
683.21	21.471
730.94	22.091
795.23	90.25
2654.8	107.04
4759.6	118.19
6726.2	123.07
8255.7	119.27
9180.7	107.23
9462.1	86.833
9188	60.745
8506.8	32.016
7447.6	8.0623
5936.3	20.881
3858.6	34.205
1581.3	37.656
3104.4	30.594
6693.3	17.72
10223	16.553
13082	33.541
14800	48.166
15073	56.798
13869	56.824
11428	49.477
8304.6	39.925
5352.4	38.21
3974.9	47.297
4546.8	56.356
5269.3	61.984
5205.4	60.374
4313.2	54.231
2948.8	48.662
1658.8	50
1063	60.166
1008.2	73.376
1165.5	86.833
2198	96.462
3849.6	103.37
5517.5	106.1
6676.6	104.12
6959.2	97.652
6224.4	84.214
4648.1	65.795
2922.7	45.044
2856.6	25.239
4403.3	21.471
5685.9	33.422
6019	44.102
5264.8	49.204
3615.5	48.508
1512.7	45.343
1130.9	47.17
2781.2	56.859
3808.5	68.469
4031.4	78.746
3724.2	83.217
3508.5	81.222
3856.5	73.41
4401.2	62.801
4483.9	53.814
3761.4	53.814
2178.7	60.108
30.265	68.819
2421.2	78
4533	84.481
5878.7	87.321
6172.9	86.839
5336.6	81.006
3560.4	71.063
1382.4	60.208
1841.8	54
3865	57.628
5218.6	68.264
5568.2	76.485
4897.9	79.404
3414.6	73.164
1499.5	58.83
454.43	40.361
1941.3	32.202
2761.3	44.385
2836.7	63.506
2423.6	77.833
2303.5	83.815
3007.2	80.225
3947.4	68.884
4442.4	51.74
4213.1	32.202
3177.6	15.62
1562.6	18.111
1012.3	30.15
2854.1	41.437
4474.1	49.204
5413.5	54.644
5499.2	57.723
4741.6	56.436
3308.8	51.624
1519.9	42.72
470.37	29.017
2000	14.866
3149.1	13
3778.5	28.601
3942.3	42.72
3823.1	52.612
3554.9	55.803
3156.6	51.894
2595.5	40.05
1872	22.472
1383.1	3.6056
1846.6	22.472
2799.9	44.721
3567.3	62.626
3831.8	72.615
3489.4	75.425
2549.8	67.801
1207.7	51.546
298.87	30.017
1625.8	22.472
2539	41
2855.7	62.801
2554.1	77.104
1770.4	79.649
929.21	71.197
1137.3	53.151
1883.8	29
2299.3	13.038
2190.3	29.206
1622.6	46.043
804.15	52.697
636.81	50.537
1313.3	38.013
1712	20.591
1646.1	1
1099.7	17.117
335.89	30.806
931.52	37.736
1835.8	41.11
2437.1	42.942
2585.9	44.385
2255.9	44.045
1526.3	40.719
607.38	32.016
478.14	20.025
1209.8	12.042
1649	24.187
1730.4	39.962
1515	50.16
1180.3	51.624
972	45.277
947	32.14
901.55	18.601
657.18	19.723
202.27	31.78
408.5	42.048
1001.7	45.541
1431.6	41.773
1619.8	33.956
1502.7	23.259
1108.9	14.142
572.59	11.18
298.69	14.318
720.56	16.401
1046	16.763
1141.7	16.125
1027.1	16.031
794.74	13.928
652.75	10
719.94	4.2426
832.26	5.099
813.05	14.765
2901.5	77.104
2941.2	84.528
3902.1	91.548
5576.2	96.462
7359.5	96.177
8740.7	89.56
9368.4	77.885
9016.8	61.847
7694.4	46
5606.7	32.558
3153.2	23.022
1047.4	15.62
1691.2	9.2195
2999.5	2.2361
4067.2	8.9443
5490.2	17.263
7646.8	24.759
10239	31.048
12627	34.482
14197	37.643
14500	39.013
13400	40.46
11118	43.186
8237.4	48.27
5870.9	53.339
5337.3	57.201
6096.9	57.871
6474.4	55
5697.7	53.009
3724.2	55.471
915.05	67.067
2234.6	82.855
5068.2	97.719
7128.2	107.65
8168.8	111
8211.1	106.83
7618.3	96.208
6959.7	82.462
6723.6	66.708
6843.7	52.01
6845.7	41.11
6356.3	33.061
5285.8	27.586
3855.2	24.331
2527.6	23.409
1905.4	29.069
1929.1	41.012
1767.3	55.902
1101.9	70.214
467.31	81.707
1653.3	87.618
2948.6	86.313
3879.1	76.922
4259	62.008
4052.5	45.607
3405.5	32.802
2590.5	31.145
1975.6	35.384
1736.6	40.46
1627.5	43.909
1393.3	46.819
1188.8	52.773
1462.7	61.4
2086.1	69.771
2589.6	77.201
2717.5	81.884
2383.4	83.774
1748.8	83.235
1478.6	80.156
2235.8	75.133
3320.4	68.242
4206.4	58.694
4676.3	47.539
4670.3	34.132
4252.4	21.401
3580	15.133
2838.3	25.495
2209.6	40
1818.3	53.141
1722.4	62.29
1934.2	64.078
2369.6	59.135
2900.2	48.021
3353	31.765
3633.3	14.318
3741.6	7.0711
3753.3	18.974
3838.2	26.87
4084.1	30.414
4433.8	32.985
4697.5	36.056
4709	41.773
4381.2	47.17
3726.8	48.021
2813	45
1778.1	39.205
759.62	32.14
175.73	30.48
900.08	32.558
1488.4	35
1968.7	36.014
2356.1	33.615
2632.8	28.653
2777.8	23.022
2790	18.439
2724.5	18
2707.1	22.804
2785.3	33.136
2912.4	45.343
2942.9	56.515
2781.7	63.695
2363.4	65
1744.3	62.801
1038.2	57.201
525.66	52.393
648.27	52.802
899.58	55.036
951.89	58.31
803.51	57.567
591.31	52.202
551.57	43.012
688.6	31.064
774.92	19.925
691.34	12.207
506.44	11.18
457.86	14.765
657.97	20.025
835.08	25.239
818.56	27.731
553.06	29.275
161.06	29.698
624.39	28.071
1262.6	26.249
1770.4	25.179
2042.9	24.698
2019.7	23.259
1730.1	21.095
1328.2	21.213
1138	25.08
1370.8	29.732
1715.9	32.558
1900.8	34
1820.4	33.242
1473.5	33.601
953.17	37
395.22	42.012
290.5	46.39
621.34	48.415
805.44	46.271
836.67	42.012
870.76	36.878
1039.9	33.541
1308.6	31.385
1548.6	28.636
1657.1	23.537
1602.2	15.811
1418.7	10.817
1171.5	13
970.68	18.601
881.28	21.024
833.5	19.416
724.71	14.422
527.27	10
286.92	13.416
326.09	19.416
622.53	24.166
4087.1	67.268
4134.9	69.836
3741.7	75.69
3812.7	82.055
4947.4	88.238
6566	89.14
7838.8	84.77
8333.7	75.133
7904.8	61.221
6745.6	45.88
5355.9	28.862
4369.1	13.892
4018.2	7.2801
3758.4	14.318
3135.9	20.248
2977.2	24.597
4827.4	28.16
7878	30.529
10995	34.366
13449	38.21
14754	41.437
14667	44.777
13264	45.804
10886	46.271
8109.8	46.098
5735.2	44.418
4503.5	42.297
4281	42.012
4048.7	45.891
3217.3	56.08
1989.4	70.214
1914.7	85.147
3621.5	98.25
5480.1	108.56
6940.5	112.73
7798	111.02
7999.9	103.59
7608.1	91.395
6745.7	74.953
5636.4	58
4585.9	39.85
3972.1	24.515
3993.4	12.042
4330.5	6.4031
4502.5	15.232
4233.6	27.459
3463.7	42.297
2278	57.245
887.95	70.725
526.91	81.043
1655.8	84.929
2427.4	83.096
2869.2	73.41
3121.8	58.009
3380.7	38.626
3706	19.698
3956.4	15.232
3929	26.077
3490.1	36.401
2651.5	40.2
1556.5	41.11
749.84	42.297
1328	50.636
2088.6	65.146
2468.8	81.541
2427.6	95.21
2125.4	103.08
1971.6	104.39
2376	98.184
3146.2	85.147
3882.5	67.268
4388.7	47.518
4572.4	27.857
4447.1	14.318
4070.8	12.53
3537.2	19.209
2938.3	24.698
2353.6	29.547
1864	34.713
1636	40.2
1782.2	45.177
2235.2	46.4
2803	44.181
3308.4	39.446
3680.9	33.526
3885.8	29.155
3951.9	28.284
3979.1	28.601
4072.2	27.203
4246.9	22.561
4433.6	17.464
4497.7	16.492
4319.4	26.249
3812.4	37.643
3027.5	47.17
2029.6	54.129
1014.8	55.902
692.49	53.235
1338.9	48.01
1927.4	40.792
2237.7	33.601
2295.1	29.155
2195.8	24.839
2122	20.616
2243.5	16.279
2548.2	15.811
2883	21.471
3105.8	31.401
3127.3	42.19
2935.1	53
2544.9	60.407
2070.3	66.483
1616.7	70.235
1292.3	72.035
1116.8	71.281
1000.3	69.584
878.25	65.192
787.9	59.008
824.74	50
970.97	40.522
1073.9	30.676
1049.8	21.26
860.63	14.866
627.76	12.042
610.4	12.649
851.93	13.892
1063.5	18.439
1082.3	23.324
847.27	28.636
389.44	34.059
243.28	38.013
896.17	38.833
1475	35.468
1865.6	30.594
2026.9	23.431
1934.8	16.125
1650.6	12.53
1303.7	15.264
1073.3	21.587
1100.5	27.203
1283.7	32.802
1420.5	37.014
1454.8	39.699
1344.2	42.426
1106	43.267
756.72	43.174
343.55	43.046
138.5	43.681
531.5	42.942
846.54	42.72
1036.8	40.162
1118.9	36.892
1153.1	32.062
1264.6	25
1478.5	16.553
1729.9	9.0554
1899.5	6.4031
1898.4	11.402
1694.7	15.297
1330.9	17.464
896.57	17.889
608.9	16.763
680.39	16.155
901.99	17
1022.6	18.439
999.02	18.788
2377.8	48.166
2266.9	62.29
1806.9	79.881
1655.1	93.145
2569.9	97.739
4031.2	93.15
5514.6	81.688
6742.2	66.851
7574	51.478
7886.4	41.049
7677.6	33.956
6959.9	25.554
5790.2	14.422
4277.3	2.2361
2807.9	14.036
2763.1	27.659
4653.7	38.079
7142.7	44.385
9570	48.374
11602	49.82
12974	49.679
13529	49.01
13185	46.325
11991	42.059
10114	37.121
7792.6	33.956
5332.2	35.511
3091.4	39.962
1753	45.044
2153.8	53.759
3100	66.272
3838.7	82.662
4336.9	101.51
4693.7	115.69
4991.6	123.76
5310	122.97
5674.2	112.81
6062	95.603
6405.2	73.573
6604.1	51.923
6561.5	35.355
6226.2	26.173
5603.3	18
4799.1	6.3246
3975.2	11.18
3282.5	32.65
2774.5	55.362
2329.6	74.431
1786.8	88.193
1203.7	92.617
1256.6	88.6
2175.9	78.102
3239	61.685
4106.4	44.418
4583.5	29.682
4595.3	20.248
4152.3	19.026
3338.8	22.804
2343.1	28.231
1412	34.54
984.03	42.379
1230.2	49.244
1535	55.326
1638.1	62.008
1542.9	71.021
1360.2	80.411
1275.2	89.627
1457.8	94.81
1920.5	94.557
2537.7	87.144
3186.2	72.014
3778.7	51.74
4209.7	29.411
4417.8	8
4369.8	9.2195
4068	20.248
3588.5	24.042
3054.8	23.195
2636.4	22.561
2501.2	28.16
2668.1	38.118
2987.9	47.802
3327.1	53.075
3611.7	53.16
3816.1	48.703
3945.1	41.34
4014.6	34.713
4039.2	28.302
4025	23.345
3970.6	16.279
3888	6.7082
3756.6	8.9443
3546.6	24.187
3244.3	39.56
2798.6	51.225
2196	58.694
1455.2	60.166
613.79	57.009
353.29	49.254
1188.1	39.357
1930.2	29.53
2490.1	21.378
2839.5	15.62
2992.3	13.153
2993.2	13.038
2935	16.492
2875.8	23.324
2867.6	33.422
2859	44.147
2797.4	53.852
2635.3	61.522
2330.5	67.186
1903.4	69.57
1375.1	69.203
815.2	68.029
393.24	65.46
542.49	61.351
871.49	57.28
1088.5	50.448
1112.6	42.297
952.47	33.615
665.05	24.759
397.46	17.889
490.27	14.866
785.02	15.033
989.02	16.155
1021.4	18.358
849.89	21.587
514.71	25
57.723	30
452.99	34.132
927.42	36.235
1314.9	35
1562	32.696
1668.1	27.586
1638.4	21.633
1510.8	18.358
1353.8	18.358
1230.5	21.932
1199.8	27.295
1273.8	32.28
1368.1	36.069
1430.4	38.639
1395.1	40.249
1236.2	42.544
942.75	44.922
545.06	47.707
186.94	50.249
475.3	50.99
897.62	49.244
1227.1	44.011
1442.7	36.62
1530.8	27.074
1522.3	17.464
1467.1	8.6023
1396.1	5
1352	9.0554
1327.2	12.649
1290.6	14.213
1210.5	15.033
1052.2	14.765
834.56	14.318
575.28	14.142
427.52	14.213
562.88	15.232
813.48	16.031
2031.4	32.28
1815.7	59.481
1324.7	81.468
1213.4	92.027
2152.6	91.049
3543.2	80.324
5004.6	67.602
6335.5	60.539
7372.2	62.682
7983.8	66.468
8066.8	64.413
7568.6	53.339
6460.9	34.205
4861.4	8.6023
3167.4	17.464
2906.3	39.013
4851.2	54.424
7411.5	61.62
9812.2	62.266
11723	57.723
12926	52
13301	46.325
12840	40.817
11636	34.409
9844.9	27.019
7685.5	23.345
5394.8	27.074
3182.3	36.401
1274.9	49.244
964.13	63.151
2240.7	79.63
3414.5	97.046
4419.3	112.54
5261.8	123.03
5913.4	124.49
6342	116.62
6520.4	100.17
6462.5	78.16
6201.4	53.666
5826.9	31.385
5410.9	15.133
5037.5	6.4031
4732.2	7.2111
4480.5	17.692
4221.4	32.894
3871	50.488
3352.3	65.215
2608	74.706
1705.2	76.026
1095.5	71.694
1745.9	60.828
2916.5	47.17
3992.4	33.061
4727.5	21.587
5008.6	14.318
4780.2	10
4072.5	9.2195
3007.7	13.416
1754.8	20.025
497.03	25.08
614.12	27.659
1412.2	29.833
1863.5	30.806
1988.4	36.056
1852.1	46.53
1576.5	57.28
1311.4	68.007
1229.1	74.632
1464.8	76.4
2003.6	73.783
2725.5	66.708
3494.7	55.444
4187.3	41.593
4669.5	28.284
4859.7	14.765
4718.8	4.4721
4290.9	2.8284
3652	5.831
2981.6	6.3246
2465	10.198
2295.6	19.416
2460.9	31.016
2794.9	43.081
3145.3	52.326
3481.5	57.94
3787.5	59.135
4050.6	53.712
4262.7	43.012
4370.3	28.636
4342.6	13
4173.1	8.544
3853.7	21.84
3413.1	34.059
2883.7	42.379
2307.8	47.074
1709.2	49.497
1119.9	49.031
522.03	46.239
159.01	42.802
755.9	38.471
1394	33.526
2007.5	29.206
2553.8	25
2989.6	22.847
3271.5	22.561
3385.9	24
3343.8	26.683
3162.7	31.385
2892.6	37.643
2563.9	44.643
2226.4	52.773
1894.9	61.221
1590	68.154
1310.7	73.682
1073.8	75.604
872.34	73.539
722.36	68.469
647.88	60.216
675.91	48.765
754.81	37.054
835.01	26.249
894.83	18.358
897.25	15.811
844.81	15.62
749.17	16.763
619.72	18.439
480.03	21.213
362.09	22.804
304.81	25.495
353.9	28.018
473.51	30.232
630.3	32.016
801.26	33.242
1001.2	31.765
1206.5	29.069
1409.7	22.847
1580	15.524
1698.9	11.662
1747.3	16.279
1711.3	25
1604.2	34.205
1420.4	40.025
1210.2	44.598
970.82	46.84
749.55	46.84
544.5	46.755
389.48	46.53
321.21	45.695
432.67	44.407
649.2	41.304
910.46	38.626
1178.4	33.971
1420	29.12
1599.5	22.204
1706	14.318
1714.9	8.0623
1636.5	6.0828
1470.2	10.44
1250.4	15
1010.1	18.788
782.43	20
575.22	20.224
464.35	19.313
477.35	17.692
610.9	14.56
767.5	13.038
2503.8	44.944
2098.5	65.276
1273.6	76.322
1115.8	75.007
2427.2	64.257
3985.2	47.17
5397.9	33.136
6524.6	32.894
7327.6	42.45
7782.5	51.088
7855.6	52.839
7470.3	46.648
6522	37.054
5016.9	25.456
3239.3	19.416
2716.4	19.313
4742.4	21.587
7482.1	24.413
9999.6	28.32
11894	34.482
12961	41.976
13143	48.508
12502	51.971
11218	52.802
9489.5	48.083
7530.6	44.011
5495.9	41.437
3518.7	44.922
1774.1	53.852
1205.9	65.437
2324.4	77.621
3530.4	86.313
4482	93.231
5141.4	95.88
5578.8	95.635
5868.1	93.68
6103.8	87.801
6298	81.835
6423.3	73.007
6407.4	63.285
6195.7	50.695
5771.3	39.115
5189	31.064
4503.6	32.757
3802.6	39.825
3143.1	47.508
2527.9	53.085
1902.5	55.946
1269.3	56.356
972	54.332
1612.8	51.74
2669.5	46.174
3730.9	38.328
4568.7	30.871
5040.2	24.597
5026.2	27.313
4499.7	34.132
3540.4	39.623
2277.8	41.629
970.15	38.328
773.62	32.14
1697.5	26.077
2355.5	27.166
2578.1	35.128
2373.7	44.181
1836.4	52
1185.3	56.08
1025.1	56.939
1705	55.109
2587.2	51.352
3423.3	46.957
4091.7	42.45
4535.2	36.401
4723.9	30.017
4642.1	24.166
4316.9	18.439
3820.7	13.416
3239.9	11.705
2686.1	12.649
2261.2	17.117
2049.9	23.345
2136.9	30.529
2497.3	37.202
3044.2	42.202
3612.2	45.706
4106.9	46.872
4415.6	44.944
4514.1	39.319
4419.1	29.411
4211.4	16.971
3958.7	2
3709.6	14
3462.8	29.155
3129.3	41.34
2668.2	50.16
2043.3	54.231
1287.5	54.562
461.52	50
404	43.29
1144	36.674
1777.4	30.61
2270.6	27.659
2629.2	26.926
2872.9	27.203
3023.2	26.019
3097.8	24.331
3090.2	23.77
3014.4	27.203
2851.3	34.886
2635.3	46.69
2357.4	57.271
2063.6	67.007
1757.4	72.918
1455.9	75.286
1172.9	73.246
914.87	68.25
717.04	60.465
609.06	51.865
605.24	43.417
671.77	37.014
767	31.321
837.22	26.926
854.26	23.345
812.33	20.248
721.71	18.788
577.72	19.925
419.08	22.091
265.51	25.495
191.85	29.155
295.06	31.401
494.97	31.78
709.19	30.414
935.48	27.785
1150.5	23.345
1335.5	18.358
1481.1	13.928
1568.5	10.77
1602.7	10
1590.1	12.042
1537	17.692
1463	25
1360.8	33.838
1241.3	42.048
1098.2	48.301
922.07	53.413
717.35	55.317
502.24	54.571
375.53	50.448
473.75	46.519
711.96	40.012
979.22	34.176
1228.6	27.659
1431.5	22.472
1579	18.439
1655.1	14
1652.6	8.2462
1579.2	4
1438.4	5.6569
1247.6	10.63
1030.7	16.125
811.3	20.224
638.54	21.84
537.04	22.023
536.69	20.591
619.65	17.263
736.04	14.036
2123	29.732
1070.6	46.065
1627.5	58.138
3035.7	63.569
4293.8	60.141
5182.6	49.659
5649.9	32.249
5788.2	15.811
5730.9	21.471
5621.6	38.013
5440.3	51.108
5022.2	56.036
4173.7	54.203
2781.3	46.519
857.31	37.108
1479	27.459
3967.6	21.378
6337.7	14.866
8347.3	10.63
9818.2	17.088
10650	31.064
10878	44.654
10603	54.745
9954.8	58.694
9041.9	56.036
7947.1	46.755
6688.3	38.949
5289.7	43.417
3846.8	58.138
2533.7	76.609
1804.6	91.093
2052.1	99.126
2759.1	100.85
3451.6	96.333
4101.1	89.359
4750.1	81.609
5446.1	76.164
6110.8	72.007
6652.2	68.877
6944.9	61.555
6937.9	51.478
6639.8	38.079
6114.3	25.495
5462	23.022
4763	34.059
4038.8	48.754
3258.9	61.131
2349.1	70.007
1259.5	71.505
322.69	67.72
1525.1	57.706
2917	44.777
4148.4	30.414
5054.6	20.809
5495.2	22.847
5404.2	30.414
4777.6	34.655
3685.8	33.541
2265.1	28.443
732.69	21
777.93	15.297
1964.8	17
2737.4	23.707
3015	28.46
2808.5	31.401
2218.1	34
1550.9	38.328
1479.1	43.966
2204.8	50.774
3084.3	55.444
3804.2	55.973
4242	52.01
4391.2	44.272
4284.2	34.132
3998.5	27.203
3622.8	24.698
3246.5	26.627
2935.3	29
2736.5	28.844
2680.7	26.401
2757	25.08
2945.2	28.231
3211.3	35.903
3475.2	43.29
3686.8	47.011
3820.9	47.434
3834.8	42.297
3738	34.015
3564.5	22.472
3357.3	11.402
3185.3	9.4868
3053.9	17.263
2951.3	25.632
2817.4	31.828
2582.3	38.013
2228.1	43.417
1747.1	46.872
1187.1	48.877
619.61	48.27
486.2	43.081
964.41	36.222
1510.9	28
2013.2	24.083
2473.1	26.173
2868.8	30.017
3187.9	31.257
3401.1	30.083
3485.7	28.862
3439.6	33.734
3247.4	43.966
2942.2	56.939
2547.5	68.768
2091.7	75.273
1599.8	77.104
1088.3	74.324
587.68	66.483
234.31	58.181
500.04	48.765
863.66	43.105
1139.7	38.21
1282.8	34.482
1298.1	30.887
1202	25.612
1037.9	19.849
834.2	18.601
617.17	21.633
411.25	25.495
216.36	28.844
259.94	30.364
542.9	30.017
873.6	28.862
1175.1	27.295
1419.4	24.839
1576	21.633
1638.9	18.028
1626.4	13.153
1558.2	7.2801
1470.7	5.831
1372.2	11.18
1272.9	17.72
1162.1	23.707
1032.9	29.833
896.34	37.202
780.53	44.944
694.38	51.039
663.24	55.66
671.69	57.009
717.15	54.708
786.86	49.82
882.88	41.304
986.45	33.242
1082.1	26.926
1172.1	22.204
1237.4	19.799
1274.6	16.125
1281	10.44
1269	3.1623
1231.4	5.831
1178.8	13
1133.7	19
1079.6	21.932
1039.3	22.627
993.14	20.125
915.7	17.464
823.67	14.036
718.31	13.038
1610	27.659
3415.2	33.541
5344.2	40.224
6184.7	47.17
5674.2	49.679
4027.8	45.607
2112	35.114
2607.3	20.591
4533.2	7.2801
5796.4	21.378
5963.4	38.91
5152.2	51.039
3952.2	56.569
3401.4	57.28
3870.5	52.802
4369.8	45
4252	36.715
3848.8	33.121
4430.1	35.355
6372.5	40.311
8632.6	46.098
10304	50.01
10902	51.245
10236	48.549
8478	43.139
6094.3	35.609
3930.7	30.414
3486	35.805
4693.2	48.415
5945.4	62.482
6625.5	74.733
6616.4	82.608
5947.8	84.345
4656.2	83.63
2836.9	78.873
980.22	73.878
2288.3	70.328
4487.2	67.067
6189.5	63.953
7014	60.008
6779.3	52.953
5525.6	43.324
3528.6	33.838
1519.8	27.166
2119.7	31.575
3864.3	44.385
5005.4	59.211
5342.9	72.18
5005.9	78.772
4289.1	78.645
3544.5	70.007
2908.6	54.083
2277.9	34.366
1515.1	18.439
1210.7	25.495
2149.6	38.949
3368.5	45.695
4255.8	43.046
4580.5	32.28
4309.5	17.088
3700.1	11.402
3230.3	24.207
3266.8	34.205
3553.8	35.468
3536.1	30.806
2984.1	26
2063.8	32.016
1693.6	46.872
2654.7	60.083
3825.5	66.008
4521	63.906
4536.1	52.802
3930.4	38.897
3105.1	29.206
2855.2	31.78
3561.4	38.013
4531.2	39.825
5185.7	34.828
5278.2	25
4815.1	21.633
3890.3	29.411
2706.7	42.048
1637.7	49.679
1563.2	51.313
2516.4	48.083
3532	42.048
4247.8	35.355
4480.6	28.46
4146	21.633
3269.4	12.53
2017.8	6.0828
1013.9	18.868
1715.9	33.136
2828.7	44.272
3562.2	50.448
3726.6	50.774
3362.1	47.76
2610.6	43.932
1703.4	41.304
866.01	41
272.13	39.459
317.81	34.785
864.77	26
1623.3	20.224
2450.2	23.345
3124.1	30.414
3452.6	35.014
3320.3	35.128
2756.3	33.015
2001.3	38.21
1664.6	51.157
2153.9	67.476
2839.3	78.791
3212.7	83.487
3111.7	79.177
2556.7	68.25
1686	54
726.07	43.012
306.41	40.012
794.55	42.048
966.9	41.231
734.7	35.355
267.43	24.207
589.52	13.928
1227.2	17.464
1684.4	27.659
1838	33.061
1667.1	32.894
1231.5	27.785
658.78	22.472
81.222	22.361
372.66	25.06
666.54	27.586
859.03	25.495
1059.9	18
1340.6	8.6023
1587.4	4
1671.8	13.454
1504.1	17.72
1094	19.026
670.45	18.028
869.3	22.361
1467.4	32.249
1945.2	44.283
2133.7	52.326
1985.7	56.639
1551.4	54.781
949.28	48.042
400.28	38.833
497.01	31.623
825.84	27.514
1015.8	26.401
1118.3	26.401
1263.7	23.022
1458.1	17.464
1586.4	10.198
1533.5	3.1623
1261.3	4.4721
844.2	8.4853
710.68	10.296
1170	11.705
1661.7	13.601
1963	16.125
1960.8	18.028
1659.9	18.028
1149	15.811
4587	42.485
4399.3	51.088
4178	55.758
3781.2	55.471
3092.4	49.01
2098.2	36.892
1006.5	21.541
1220.2	8.9443
2532.9	19.313
3797.9	35.171
4802.8	47.424
5437.8	54.231
5673.1	55.036
5491.2	51.245
4918.6	43.566
4026	34.828
3114.2	28.601
2926	27.295
3998.9	30.871
5677.9	34.482
7311.7	38.013
8509.3	38.897
9016.9	39.205
8698.7	37.59
7598.9	33.242
5948.5	25.298
4338.3	18.868
3917.7	24.187
5040.9	38.013
6484.5	53.413
7437.6	65.215
7526.7	70.52
6707.4	70.029
5092.3	63.348
3057.1	54.781
1836.3	49.244
3164.1	48.754
4944.2	51.313
6146.4	50.912
6519.2	47.508
6023.2	38.328
4764.8	26.077
2983.9	15.033
1118	8.6023
1455	10.44
3078.7	15
4320.4	24.187
5014.6	37
5165.3	50
4838.8	60
4152.5	64.008
3222.5	60.133
2159.5	47.539
1147.1	29.069
958.94	8.2462
1846.5	13.342
2808.3	29.732
3577.8	40.162
4076.2	41.773
4273.2	36.235
4211.3	25.632
3957.6	11.18
3590.5	2.8284
3146.8	12.369
2673.8	18.788
2277.1	21.024
2125.2	20.248
2392.7	21.19
2921	23.707
3424.7	25.08
3670.3	25.179
3559.9	22.472
3107	18.385
2543.1	16.279
2410	16.279
3025.7	17.205
3979.9	17.889
4801.3	16.763
5220.1	14.142
5122.4	12.042
4515.6	11.045
3553.5	8.544
2614.2	3.1623
2364.4	6.3246
3009.8	17.205
3848.6	26.476
4376.2	34.928
4418.3	41.049
3934	42.802
2998.2	41.231
1768.2	39.812
660.21	40.05
1205.5	41.593
2220.1	42.953
2944.2	40.311
3287.5	33.106
3259	24.021
2924.7	12.649
2360.4	2.2361
1634.9	6
784.08	9.2195
221.38	6.7082
1151.3	4.1231
2071.5	10
2820.2	19.209
3295.4	25.298
3386.7	28.018
3062.6	26.249
2361.4	22.472
1434.5	24.515
862.1	32.757
1486.6	44.721
2336.7	53.814
2902.3	57.871
3071.4	55.579
2822.4	46.043
2228.9	32.757
1413.9	17.72
547.53	8.4853
286.9	15.524
830.62	23.022
1099.3	26.401
1096	25.495
920.21	20.616
831.78	15.524
1049.9	13.342
1384.2	14.213
1604.8	15.297
1580.2	13.601
1302.6	10.05
794.83	4.4721
315.64	5.831
779.96	13.038
1414.6	19.416
1887.1	25.298
2109.5	27.893
2031.2	26.173
1673.7	22.804
1102.8	16.031
446.97	10
384.03	13.416
959.44	22.136
1397.3	32.062
1635.3	38.471
1661.8	42.202
1507.4	40.792
1204.9	36.674
804.48	30.017
328.32	24.083
189.45	19.105
702.97	20.518
1179.5	22.804
1557.4	23.77
1776.1	23.087
1803.3	20.616
1624.4	17.493
1266.6	13.454
815.46	12.042
552.05	10.817
800.85	10.44
1196.1	10.05
1472.4	7.8102
1563	6.0828
1474.7	4.2426
1233.4	4.1231
910.47	4.2426
4875.5	63.6
4156.8	60.539
3324.3	50.22
2601.1	37.014
2148.3	25.71
1914.4	22.804
1663.9	25
1380.6	27.857
1559.3	29
2527.9	30.083
3860.7	33.121
5169.3	36.77
6136.3	37.696
6539.3	35.128
6253.9	28.018
5317.4	17.72
4089.9	9.434
3569.4	13.601
4664.9	20.396
6535.5	23.345
8223.4	21.378
9244.5	15.811
9356.9	7.8102
8535	1
6917.7	5
4876.4	6.0828
3214.9	6.0828
3351.2	11.662
4782.5	22.472
6070.6	35
6709.8	45.188
6546	49.679
5636.9	49.041
4144	42.297
2376.6	30.871
1342	19.235
2531.2	16.031
4053.5	25.08
5179.7	33.541
5722.5	37.443
5598	37.216
4827.1	32.016
3508.8	24.597
1875.7	16.401
1034	9.8489
2482.1	8.544
4043.3	13.153
5180.7	20.616
5717.4	30.232
5606.1	40
4901.4	47.707
3745.6	50.567
2332.1	49.497
961.01	41.012
841.84	29.069
1854.6	18.868
2715.4	19.209
3393.4	28.16
3937.5	35.228
4357.8	36.014
4602.8	30.887
4576.8	20.809
4201.8	6.7082
3496.8	8.6023
2592.9	20.616
1868.2	29.017
1942.4	31.953
2619.4	31.241
3281.5	28.018
3634.3	24.166
3627	21.84
3318.8	20.025
2871.3	17.464
2536.5	13.038
2566.7	7.2111
2970.6	1
3534.8	4.4721
4040.7	8.0623
4359	8.0623
4377.5	6.7082
4025.9	8.4853
3316.3	14.036
2390.6	18.601
1700	22.825
2057.3	24.331
3051.5	25.08
3932.9	27.893
4382	30.871
4267.8	33.302
3579.7	34.67
2417.1	33.242
1018	31.016
887.84	27.459
2228.3	25.298
3321.8	25.554
3952.3	25.495
4059	25.298
3658.7	22.361
2860.8	17.029
1835.8	11.402
971.05	6.3246
1229.3	1.4142
2059.6	7.2111
2745.2	13.416
3134.6	19.235
3193.2	22.023
2922.2	21.541
2376.2	18
1625.8	11.045
783.45	11.402
382.97	23.431
1072.8	36.056
1713.1	46.271
2151	50.774
2346.1	49.93
2299.6	42.426
2050.4	31.78
1652.1	18.788
1168.8	10.05
680.95	13.892
381.61	21.541
562.43	25.08
911.18	26.249
1221.2	24.207
1445.2	20.125
1556.5	14.036
1551.5	8.4853
1414.3	6.4031
1153.2	9.2195
777.57	11.402
320.14	11
198.84	7.8102
707.35	6.4031
1162.7	13.601
1510.1	22.804
1708	30.083
1710.2	32.527
1508.1	29.411
1115.3	21.095
573.84	10.05
57.559	11.18
676.27	25.06
1219.9	37.643
1609.5	44.922
1783.1	46.271
1721.8	42.048
1436.1	34.059
971.25	26.173
429.19	22.672
412.46	23.431
937.62	26.173
1399.6	25.239
1704.9	22.847
1814	19.925
1730.1	18.974
1475.3	19.647
1097.2	19.026
682.49	18.439
450	14.318
668.28	10
993.71	7.2111
1252.6	6.7082
1371.8	6.4031
1342.4	5.3852
1171.9	3.6056
903.92	4.4721
4067.5	60.141
4642.8	59.666
4974.9	53.852
4876.3	44.944
4231.9	35.057
3002.6	25.612
1281.9	18.788
845.66	14.142
2928	16
4808.6	21.19
6220.1	27.586
7002.5	31.78
7079.2	33.838
6507.1	33.422
5408.9	29.275
4042.8	22.847
2954.6	15.811
3085.7	10
4350.4	4.2426
5818.1	2.2361
6961.7	4
7522.2	6.7082
7352.8	9.8995
6451	13.928
4924.4	17
3017.9	17.464
1196.3	17.692
1485.8	17.205
2894.2	19.235
3911	24.352
4415	30
4438.8	36.249
4076.7	39.205
3397.6	37.336
2437.8	30.463
1245.7	20.248
624.94	6.0828
1940.7	10.198
3303.6	25.495
4320	36.497
4765.6	42.154
4544.8	41.869
3667.8	34.928
2283.5	24.083
656.27	14.036
1084	18.868
2520.3	31.385
3603.3	42.012
4323.5	47.011
4729.1	48.021
4890.7	44.011
4797.8	37.216
4359.5	28.636
3511.5	22.561
2425.9	18.868
2010.3	19.416
3152.8	21.401
4730.9	25.02
5954	27.785
6484	27.731
6173.5	24.331
5111.9	18.601
3595.1	13
2310.3	14.318
2381.2	19.925
3295	26.833
3940.7	30.414
4039.7	30.265
3687.1	24.839
3212	16.553
2987.5	7.2801
3011.9	7.6158
2966.3	15.264
2600.5	20.248
2006	22.023
1764.2	19.209
2382.2	13.153
3256.4	5.831
3815	9
3814.3	17.804
3212.3	25.02
2112.6	29.206
728.65	29.732
692.17	26.306
1874	19.723
2663.5	13.892
2989.1	14.318
2918.6	23.087
2556.4	30
2042.4	34
1447.8	33.136
781.03	28.16
204.3	21.471
1000	16.155
1931.2	20.396
2721.7	27.857
3206.2	32.65
3252.8	34.015
2830.2	30
1992.2	20.616
897.14	10
366.99	5.6569
1397.5	16.279
2188.7	24.597
2632	29
2733.8	27.731
2580.6	22.023
2277.3	11.705
1893.2	4
1428.8	15.652
856.98	28.071
482.11	37.336
1070.6	43.186
1890.3	43.681
2566.9	40.608
2942.4	33.015
2926.7	23.324
2520.2	13.342
1792.3	5.831
894.96	8.0623
228.88	12.369
899.44	15.652
1462.8	17.029
1775.6	18.439
1872.4	20.591
1840.6	22.361
1739	22.361
1561.2	20.809
1261.1	16.553
787.94	9.2195
166.23	3.6056
567.04	12.806
1253.4	22.804
1773.8	30.364
2042.8	34.059
2002.7	33.242
1665.8	27.295
1114.5	18.385
479.86	8.4853
314.95	11.18
781.74	20.616
1115.3	27.785
1264.8	32
1270.4	31.305
1203.4	26.907
1109.4	21.471
954.11	17.088
694.06	16.155
302.78	16.763
201.65	16.125
738.77	14.036
1220.8	10.05
1556.5	9.0554
1686.7	11.705
1568.8	15.297
1252.7	18.028
791.58	17.088
295.3	14.422
240.35	11.402
583.05	10.296
793.96	12.083
850.66	14.422
816.13	15.556
762.97	14.765
721.63	13.601
681.23	11.045
4323.8	64.351
3851.2	65.97
3430	61.4
2906.9	51.624
2130.2	38.328
1118.8	25.179
1026.8	14.56
2445.1	13.038
3939	18.439
5139	24.207
5813.5	28.792
5841.2	31.78
5227.7	32.527
4079.6	30.806
2600.1	26.683
1040.1	20.616
526.17	14.422
1655.7	10.296
2511.8	8.544
3137.4	7
3665.2	5
4176.4	6.4031
4611.5	10.05
4821.1	14.765
4667	17.804
4092	18.028
3154.4	16.125
2081.5	15.297
1447.4	18.974
1854.9	26.683
2584.5	34.015
3068.3	38.626
3192.5	40.311
3034.5	37.162
2772.8	29
2619	17.464
2636.6	3.6056
2701.5	10.77
2673.6	24.021
2511.7	34.438
2363.2	40.46
2442	40.804
2810	35.057
3289	24.352
3656.7	14.318
3774.7	16.125
3586.9	28.653
3130.4	40.608
2508.8	48.052
1921.2	50
1609.2	46.065
1624.1	40.012
1709.3	31.305
1598.9	23.601
1236.5	17.117
880.31	15.264
1343.8	16.155
2414.7	20.396
3571.1	24.759
4591.7	28.16
5326.9	29.12
5682.6	26.401
5618.5	20.1
5171.8	16.155
4416	19.105
3467.9	25.02
2457.2	29.833
1515.1	30.676
812.63	26.306
671.4	17.889
941.54	9.4868
1156	12.083
1208.7	19.925
1119.3	26
960.14	27.313
920.4	22.627
1159.6	14.318
1565.2	4.4721
1965.9	9.2195
2254.8	19.235
2368.8	26.476
2291.4	31.145
2047	32.311
1692.8	30.806
1306.3	26.87
973.19	22.627
797.49	22.023
845.42	24.413
1057.8	30.48
1360.3	34.205
1692.2	34.54
1997	31.257
2227	24.083
2335.8	16
2295.4	16.553
2112.3	24.187
1817.7	31.78
1496.7	33.377
1282.8	30.232
1289.2	20.125
1476.3	7.6158
1687.1	9.2195
1813.6	21.095
1812.6	29.069
1688.2	31.016
1467.8	26.926
1206.7	17.493
947.22	5.099
738.3	10
626.92	21.633
688.75	30.529
919.27	34.525
1233.3	36.346
1535.7	35.341
1755.7	32.65
1843.7	30.232
1781.9	25
1581.9	18.028
1297.8	8.0623
1012	2.2361
819.81	11.662
749.94	19.026
755.52	22.472
760.61	21.26
761.47	18.601
789.91	15.264
860.75	14.422
947.15	15.652
997.62	15.133
998.35	10.296
980.48	5.3852
988.65	12.083
1056.9	22.472
1158.8	31.78
1241.9	36.069
1268.2	35.511
1215.8	30.414
1097.7	21.84
937.41	17.804
780.17	20.591
644.91	27.659
564.03	31.385
539.65	30
564.41	24.515
624.07	17.029
684.12	11
731.11	11.705
757.22	15.297
768.63	16.125
789.73	13.892
822.36	8.6023
873.89	1
929.16	5.3852
961.99	11.314
955.44	13
902.48	13
808.07	9.4868
688.2	6.0828
550.37	5.3852
447.45	8.0623
382.69	10.44
373.27	10
405.38	9.0554
432.76	8.0623
437.52	8
421.04	9.0554
2523.3	57.201
1615.2	64.938
1066.4	65.253
1170.6	59.034
1661.4	48.021
2323.1	33.838
3116.6	23.77
3950.4	25
4657.2	31.623
5063.5	37
5040.9	39.013
4577.4	36.249
3746.5	29.732
2708.7	21.84
1690.7	14.142
925.75	7.2111
559.33	3.6056
517.94	4
868.7	6.7082
1623	10.817
2550.2	15.297
3421.8	18.439
4043.9	19.416
4302.8	17.804
4164.3	14.765
3693.9	13.038
3033.6	14.866
2341.5	18.439
1781.3	21.954
1455.8	24.042
1420.3	25.08
1641.2	25.179
2027.3	26
2423.6	24.839
2699.6	22.847
2771.6	18.439
2642.8	14.318
2413.3	16.279
2251.8	24.021
2276.3	31.89
2446.8	37.108
2649.1	36.401
2841.3	31.145
3071.1	19.235
3357.5	5.6569
3628.4	11.402
3727.8	25
3525.5	35.355
2957.9	40.804
2087.2	40.608
1174.1	38.833
1022.5	35.847
1666.3	35.903
2137.8	38
2174.2	38.897
1823.9	36.878
1616.7	31.953
2326.8	24.515
3607.1	17.205
4882.5	13
5824.2	14.56
6260.1	16.155
6137.4	18.385
5502.7	21.024
4504.4	23.195
3349.7	25.71
2288.8	26.401
1573.5	24.698
1337.9	19.647
1316.4	13
1218.4	10
956.01	13.601
580.18	18.028
287.35	20.518
540.55	20
971.56	18.028
1369.5	19.723
1701.3	24.083
1931.3	28.425
2034.1	30.594
2010.1	28.636
1883.5	21.954
1714.7	13.038
1569.5	3.1623
1494.4	6.3246
1477.2	13.342
1467	16.279
1432.1	13.928
1399.6	10.05
1417.1	5.3852
1519.5	9.8995
1676.7	14.765
1825.7	17
1926.4	15
1946.6	10.198
1919.8	5.099
1867.4	10
1818.5	18.439
1787.2	26
1755.5	30.48
1707.1	31.257
1630.2	29.206
1509.4	26.019
1362.7	23.431
1211.8	22.136
1077.2	23.087
980	24.413
931.5	25.318
934.69	24.413
989.12	23.087
1087.6	18.974
1208.8	14.866
1339.3	12.207
1444.9	13.892
1514.8	17.72
1525.7	22.361
1483	24.839
1388.1	25
1264.1	23.409
1122.5	20.248
993.28	15.133
883.13	10.817
808.47	7.2801
752.79	5.099
720.07	2.8284
705.48	0
719.67	3.6056
769.94	8.544
851.5	13.342
934.18	16.971
1010.3	19.235
1066.7	21.024
1106.7	21.954
1141.6	21.213
1180.6	21.26
1216.1	22
1226.5	23.345
1188.4	26.173
1089.7	27.459
939.51	29.411
762.37	29.411
600.36	26.627
498.19	23.022
485.27	17.029
532.09	10.198
595.12	4.2426
669.09	3.1623
762.08	8.2462
865.01	10.817
952.12	13.342
1007.8	13.038
1012.1	12.369
975.67	10.817
899.18	9
804.65	7.2111
717.45	5.831
647.69	5
599.04	5.3852
572.01	5
559.54	5
546.07	4.4721
527.62	3.6056
497.33	2.2361
436.23	4.1231
357.53	5.099
272.02	7.2111
2199.5	50.912
1481.8	53.367
1429.9	50.961
1982.8	44.045
2640.4	33.287
3202.2	23.707
3623.8	19.209
3894.8	21.213
4027.9	24.839
4031.6	27.459
3930.4	27.731
3730.9	30.676
3433.4	34.366
3050	36.222
2599.7	36.249
2106.1	32.527
1608.3	25.06
1175.5	16.155
978.92	12.042
1225.5	16.279
1811.8	21.095
2523	22.204
3216.5	18.788
3764	12.53
4054.1	5.6569
4034.7	7.6158
3686.1	13.892
3089.3	17.72
2397.9	18.788
1878.9	17.464
1797.2	14.866
2048.1	11.662
2327.6	8
2473.2	5.099
2472.7	9.8489
2336.7	19
2084	28.844
1722.2	36.77
1356	41.976
1356.1	42.521
1996.8	38.053
2933.2	30.48
3830.9	22.091
4479.1	19.925
4726.6	23.345
4520.7	29.017
3877.4	30.806
2902	29.069
1759.7	24.083
644.91	20.025
387.82	20.025
996.6	25.495
1300.8	30.887
1345.4	34.409
1348.4	34.525
1615.9	32.016
2207.3	27.803
2967.6	23.324
3751.8	19.647
4460.4	19
5016.6	19.313
5339.2	20.518
5360.4	21.378
5029.4	20.616
4352.7	20.248
3396.8	19.026
2284.3	18.028
1230.3	16.155
752.63	15.133
1169.6	13.601
1567.6	12.083
1686.2	10.44
1546.6	7.6158
1247.2	7.8102
935.91	11.705
735.83	17.464
679.84	23.087
731.96	28.018
930.22	31.016
1298.4	30
1744.6	26.926
2149.8	20.616
2415.1	13.601
2483.9	8.6023
2328	9.2195
1994.2	13.342
1533.8	14.422
1064.7	12.042
779.22	7.8102
877.39	1
1206	6.0828
1545.7	11.314
1820.7	15.133
1991.9	15.264
2044.1	12.369
1996.1	9.2195
1887.7	10.63
1777.7	17.117
1724.3	23.345
1733.7	29.155
1764.9	30.887
1753.3	30.871
1661	27.659
1487.2	23.022
1249.2	19.647
980.38	19.313
740.52	22.825
631.85	25.632
748.77	27.893
1000.3	26.87
1274.6	24.042
1497.5	19.105
1627.8	13.601
1648.9	11.045
1565.3	15.033
1409	20.616
1245	24.207
1133.1	26.173
1106.9	25.554
1127.7	23.409
1152	19.313
1134.1	16.155
1058.2	12.083
934.28	7.2801
763.02	3.1623
565.05	6
427.88	10.296
470.69	15.297
684.63	17.804
936.04	20.025
1160.5	20.248
1322.4	18.788
1401.4	17.117
1393.9	16.643
1322.2	16.643
1192.6	19.105
1042.2	21.932
900.59	26.077
793.55	30.017
726.55	32.802
692.61	33.526
675.95	31.016
648.65	26.926
608.08	20.396
572.5	13.892
570.64	7.8102
620.31	8.4853
714.2	12.369
827.1	16.125
937.24	17.464
1015.1	16.401
1049	14.142
1031.9	10.63
963.98	7.0711
848.4	4.1231
707.41	3.1623
579.07	4.2426
506.05	5
529.05	4.2426
591.01	2
648.44	1
651.65	2.2361
605.99	4.1231
511.17	4.1231
392.42	4.2426
262.38	4.4721
2525.5	45.651
1106	43.909
970.6	40.05
2297.2	33.106
3448.2	24.839
4193.6	15.232
4476.3	6.3246
4335.2	6.0828
3886.4	12.166
3319.9	17.029
2866.7	19.925
2724.5	20.125
2886.3	20.248
3137.3	21.401
3290.6	25.456
3207.6	28.302
2835.2	27.893
2155.2	24.021
1211.5	17.72
497.82	10.198
1502	12.083
2736.6	19.698
3795	26.077
4518.3	27.857
4801.9	24.839
4597.4	16.031
3933.4	5.099
2887	13.342
1619.7	25
686.09	33.136
1537.8	34.438
2656.3	30
3483.5	19.647
3878.5	8.0623
3794.3	15.524
3224.2	29.682
2255	39.825
1070.4	45.177
895.48	45.343
2120.6	40.311
3262	35.468
4059.9	32.062
4415.7	31.623
4310.8	32.985
3832.1	33.601
3109	30.017
2326.3	23.259
1695.6	16.279
1358.6	11.662
1242	15.652
1139.2	22.023
928.8	25.942
626.99	27.019
461.03	26.926
878.23	24.083
1633.6	20.809
2539.4	19.698
3498.4	21.587
4384.3	24
5056.4	26.571
5392.3	26.907
5326.8	25.942
4865.9	24.187
4097.5	22.361
3198.5	20.125
2398.8	19.849
1928.5	18.358
1776.7	17.117
1690.6	15.232
1465.3	12.207
1136.6	9.2195
967.85	9.4868
1190.2	10.817
1561.6	14.318
1823.6	17.464
1887.2	21.095
1759.6	23
1525.5	24.413
1262.9	24.698
1034.5	24.042
881.69	23.022
901.32	20.224
1179.8	17.029
1636.6	14.142
2093.1	11.662
2397.3	8.9443
2431.6	7
2153.6	6.7082
1602.4	7.2111
976.28	7
951.43	6.7082
1618.5	7.2111
2284.6	8
2714.5	9.434
2815.6	11.402
2612.7	13.038
2164.5	14.142
1605.2	14.866
1111.4	16.492
944.52	18.028
1131.3	19.209
1412.6	21.095
1634.9	24.698
1736.7	26.926
1689.8	29.12
1474.9	31.623
1095.7	32.14
629.74	31.828
502.67	30.265
993.95	25.554
1533.5	19.313
1924.4	11.402
2094.9	2.2361
2029.9	7.0711
1764.4	16.125
1379.3	23.259
1023.7	28.16
884.22	29.206
990.23	27.857
1156.5	23.195
1244.2	17.493
1225.8	11.314
1117.2	7.0711
938.18	7.2111
705.54	7.2111
451.25	7.8102
259.37	8.4853
386.52	9.2195
684.55	11.705
979.23	14
1226.8	16.643
1396.4	18.385
1478.4	20.396
1481.2	21.932
1412.8	22.361
1283.8	23.087
1125.4	23.431
955.79	24.187
801.73	25.495
686.58	28.443
612.99	30.232
581	30.017
560.63	28.018
538.56	22.204
506.32	16.279
475.93	10.63
470.23	10.63
538.24	15.297
690.25	19.416
879.54	21.095
1065.9	19.799
1197.3	17.029
1240.3	12.728
1171.2	10.198
999.56	9.4868
758.73	9.434
528.97	8.0623
457.95	6.4031
576.3	5
711.13	4
770.56	4.4721
739.02	6.7082
623.21	7.2111
474.04	7
313.83	5
186.22	3.1623
2469.4	55.66
1060.5	46.69
804.18	33.242
2172.4	20.025
3386.2	8.0623
4222.7	1.4142
4580.3	6.7082
4470.6	9.2195
3967.4	10.198
3271.6	12.369
2706.1	15.133
2623	18.111
2976.4	18.028
3410.9	18.028
3639.1	16.279
3516.4	14.213
3009	13.892
2138.2	11.705
973.85	9
392.32	4.1231
1769.5	3.1623
3050.5	10
4058.8	15.652
4674.5	18.358
4806.1	18.111
4445.6	15.811
3659.8	15.232
2575.3	18.111
1486.1	24.083
1203.6	27.459
1987.6	27.731
2817.3	22.472
3368.1	14
3547.6	2.2361
3354.3	10.817
2829.5	24
2055.4	33.615
1218	41.183
974.74	43.046
1745.1	42.202
2677.4	38.897
3453.6	35.114
3949.3	31.765
4112.7	29.833
3928.4	29.206
3447.9	27.019
2758.3	23.259
1995.2	17.029
1364.4	10
1128.2	9.2195
1259.1	17.263
1394.6	25.495
1350.4	31.145
1181.1	31.953
1229	29.017
1810.6	23.537
2723.8	18.248
3693.3	19
4535.7	26.019
5099.2	31.623
5305.8	34.059
5111.9	31.765
4548	26.306
3700	19.026
2728.7	15
1840.7	16.125
1346.3	20.1
1370.3	21.471
1511.7	20.591
1469.7	18.248
1179	15.264
738.55	14.318
618.57	15.524
1135.7	16.155
1727.2	17.029
2175.6	16.763
2385.6	17
2333	19.647
2040.3	22.804
1588.7	25.08
1148.5	25.495
1040.5	24.083
1362.9	23
1795.3	20.518
2117.4	17.263
2235.1	15.652
2106.5	14.765
1728.7	14.036
1126.4	12.806
355.46	11.705
484.23	12.166
1302.6	12.728
1983.6	14.142
2440	14.422
2609.5	14.142
2480.6	13.454
2101.9	12.166
1611.1	11.18
1263.5	11.18
1356	13.454
1718.1	17.464
2036.3	22.361
2164.5	27.586
2064	31.575
1760.8	34.015
1342	35.847
929.42	35.057
747.92	32.802
912.51	28.792
1204.5	22.204
1467.1	15
1636.6	7.2111
1701	2
1661.2	8.4853
1522.5	14.866
1291	20.025
1010.8	24.597
775.33	25.612
716.06	25.71
857.23	23.537
1063.4	19.209
1209.4	12.53
1250.5	7.2801
1151.3	3.6056
929.17	6.0828
611.02	8.544
282.94	10
374.71	9.2195
732.57	9.2195
1050.4	12.042
1276.1	17
1395.9	22.023
1429.7	26
1401.1	27.659
1337.4	27.659
1256.6	24.739
1159	21.633
1031.9	18.385
889.38	18.601
764.98	21.932
715.6	26.077
738.39	29.547
774.96	29.411
760.54	28
678.19	23.431
562.65	18.028
503.66	14.422
597.13	15.264
788.85	18.248
969.66	19.416
1083.6	18.974
1103.5	17.464
1027	13.454
874.44	8.2462
671.58	5.099
481.09	2.2361
377.81	0
411.17	1
500.85	2.2361
573.64	4.1231
612.83	6.0828
634.81	6.4031
643.82	6.0828
639.9	5.831
591.76	5.831
490.75	7.0711
2337.1	54.626
1445.8	49.578
363.68	40.522
1046.5	28.636
2421.9	15.62
3663.7	5.831
4538.8	2.2361
4864.7	5
4555.9	5
3717.2	3
2714.3	7.0711
2406.8	11.402
3193.3	13.928
4176.5	14.036
4725.4	11.18
4593.6	7.6158
3758	8
2346.2	12.042
628.61	16.553
1239.9	16.401
2803.2	13
3938.2	8.6023
4548	7.6158
4650.9	15.62
4350.5	23.345
3811.1	28.636
3144.8	30.529
2420.9	29.017
1655.4	24.413
1098.2	18.974
1409.5	12.083
2265.6	7.0711
3052.2	6.3246
3516.5	8.4853
3498.7	11.045
2973.3	14.422
2006.5	18.028
775.66	23.77
677.04	29.732
1875.7	36.674
2836.9	42.72
3451.8	47.634
3730.6	48.508
3747	45.88
3610	38.949
3367.9	28.862
3007.3	16.125
2495	5.099
1845.1	11.18
1229.7	19.235
1077.2	24.083
1415	24.352
1695.7	22.023
1689.4	18.111
1503.8	15.133
1684.7	15.133
2548.3	15.297
3696.6	15.811
4731	16.155
5392.7	16.553
5533.9	18.868
5129.2	21.213
4279.8	22.361
3185.3	20.1
2149.1	16.492
1562.3	10.77
1546.5	8.0623
1621.1	12.042
1462.7	17.464
1060.5	21.932
639.15	24.739
640.58	25.495
939.26	24.166
1149.6	22.804
1285.8	19.416
1509.7	16
1889.2	11.18
2289.5	7.6158
2500.4	11.402
2382.7	18.358
1900.1	25.06
1208.8	29.155
991.4	31.828
1701.7	30.15
2484.2	27.203
2935.3	23.022
2900.2	20
2359.8	18.788
1426.4	19.235
466.2	21.213
1163.7	21.024
2144	20
2777.1	18.248
2939.4	15.264
2649.6	13.342
2024.6	9.434
1339.4	5
1084.4	2.8284
1408.9	8.6023
1748.3	16.553
1849.2	24.187
1709.2	29.833
1477.9	34.785
1354.6	36.674
1394.2	36.235
1426.6	33.106
1279.6	30.067
902.88	25.962
443.29	23.022
657.27	20
1275.3	16.492
1781.3	10.44
2044.3	4.1231
2015	5.831
1723.2	14.866
1259	21.587
822.51	26.907
742.1	28.46
1006.3	26.476
1261.7	22.204
1375.2	16.125
1347	8.2462
1215.6	3.6056
1037.1	6.0828
831.95	7.6158
618.56	7.2111
458.52	5
505.58	5
743.92	8.2462
1017	14.036
1235.3	19.647
1360.3	23.854
1392	25.612
1356.8	26.926
1293.1	26.077
1207.9	24.331
1100.1	22.472
938.91	21.471
743.13	21.633
587.82	23.345
595.7	26.077
733.44	27.659
846.09	27.659
839.09	25.495
682.74	21.587
427.61	17.889
346.71	15.297
639.05	15.62
965.95	17
1180	18.601
1235.8	18.974
1127.7	16.279
917.91	13.454
699.01	9.8489
610.45	6.0828
654.34	4
684.11	2
611.93	1.4142
449.19	1
336.73	3.6056
487.12	6.3246
714.78	7.2801
865.03	8.4853
877.87	8.0623
739.98	7.2111
483	5.099
1457.4	46.872
1300	45.804
1426.4	41.761
1889.8	35.057
2510.8	27.313
3048.4	17.804
3321.2	10
3221.3	8.0623
2732.3	11.045
1924	13
1031.1	12.806
894.71	10.05
1671.9	7.0711
2392.1	5.3852
2815.4	5
2880.4	4.2426
2613.9	3.1623
2102.7	2.8284
1548.6	6.7082
1378.6	10.77
1823.5	13.342
2480.8	15.62
3013.3	15
3269.6	14.866
3196.1	16.031
2814.3	17.804
2222.6	21
1546.1	23.854
932.67	25.495
468.09	25.02
107.33	22.825
302.7	18.028
823.24	11
1396.4	4.1231
1896.1	9
2195.7	17.205
2243.3	25.554
2082.7	31.401
1899.4	36.497
1930.4	40.249
2188.5	44.553
2432.4	46.065
2457	47.265
2195.6	43.966
1750.5	38.21
1408	27.203
1473.3	15.232
1768.4	7.6158
1931.7	15.232
1809.9	23.707
1433.8	27.074
969.87	25.807
696.28	18.788
661.82	9.0554
504.2	2.2361
311.26	12.369
1093.6	18.439
2229.5	19.105
3391.1	14.866
4323.9	7
4817.2	5.099
4743.6	15.033
4106.3	23.022
3030.8	27.313
1813.5	25.495
1151.2	19.209
1638	9.4868
2207.7	8.6023
2358.7	19.723
2043.2	30.676
1378.7	38.275
561.95	40.817
315.64	39.319
844.06	33.242
1096.2	23.022
1090.2	12.042
1038.3	3
1214.4	13
1561.5	23.345
1809.9	31.064
1805.7	35.805
1516.1	37.108
1077.4	34.438
938.62	29.155
1376.8	23.409
1928.2	17.464
2292.7	12.083
2377.4	8.2462
2190.2	5.831
1802.8	4.4721
1335.7	5.099
927.63	7.0711
716.1	10.63
720.67	14.142
805.83	17.493
884.48	20.248
916.02	19.647
859.82	17.029
697.09	11.402
428.88	5
173.95	14.318
402	26.627
726.96	37.577
951.87	45.177
1040.8	47.202
1014.2	44.385
927.32	35.355
857.4	23.601
824.66	10.817
777.43	5
653.07	11.045
459.68	13.416
393.15	11.705
620.42	10
908.83	14.142
1095.6	23.087
1111.2	31.113
943.69	35.355
623.54	34
212.08	28.636
218.59	19.925
580.22	10.44
822.04	8.2462
934.52	11.662
933.74	12.649
868.49	11.705
789.11	9.2195
725.71	10.296
657.82	15.133
552.44	18.358
399.5	18.868
229.19	16.492
163.77	14.142
278.72	14.56
417.26	19.416
534.18	24.021
627.22	24.698
693.08	22.023
716.3	17.692
670.66	15.62
553.18	18.868
393.73	26.173
340.92	31.305
481.71	33
665.96	31.765
783.86	27.295
785.49	21.095
667.58	15.62
450.96	12.369
199.48	11.662
165.46	12.166
346.15	12.207
457.47	12.042
479.17	12.53
440.73	11.402
423.56	11
493.57	9.4868
599.34	7.2111
657.04	4.2426
616.12	2.2361
472.06	1.4142
245.51	3.1623
151.99	5.831
405.66	7.8102
657.15	10.817
826.64	11.18
2443.7	35.384
2787.3	37.202
2989.5	38.626
2999.9	38.118
2839.6	34.928
2551.7	27.459
2199.4	18.439
1828.8	8.4853
1444.8	9.2195
1021.5	17.263
540.45	23.195
236.14	23.854
741.87	21.095
1338.2	13.038
1870.2	4.4721
2281.8	5.6569
2560.7	13.342
2709.4	18.028
2755.7	18.601
2725.7	15.033
2624	11.662
2451.2	12.042
2221.8	17.117
1969.6	21.932
1765.2	25.298
1675.6	25.08
1690.3	23.409
1717.4	21.954
1674.7	21.26
1525.1	21.633
1290.3	20.224
1040.2	15.652
862.99	10
825.69	13.342
902.91	22.804
1075.2	31.623
1353.5	36.497
1723.3	36.62
2119.7	32.802
2452.8	28.178
2645.8	27.731
2646.7	33.838
2442.9	40.012
2057.1	42.953
1524.4	41.617
905.19	36.056
284.43	28.32
527.61	23.77
1153.6	23.77
1699.9	25.612
2072.4	26.173
2194.2	23.022
1992.1	17.117
1436.1	10.817
549	10
586.05	14.318
1835.6	16.155
3028.1	15.232
3993.6	10.44
4578	7.6158
4691.5	10.817
4305.7	16.492
3484.1	19.849
2343.5	20.224
1068.5	17.464
324.85	12.207
1260.5	5.099
1932.3	5
2194.8	12.166
2045.8	20
1550	26.42
829.77	32.062
112.2	34.176
769.29	33.971
1373.5	29.12
1747.6	20.396
1867.2	8.6023
1755.9	5
1483.8	19.313
1167.3	30.61
952.73	39.205
972.2	42.544
1147.4	40.719
1343.2	36.139
1482.4	28.844
1560.5	21.587
1590.2	15.811
1593.5	12.806
1584	11.045
1573	7.8102
1545.8	2.2361
1491.9	5.3852
1401	13.153
1260	19.799
1074	24.331
846.27	26.833
594.42	23.707
338.8	17.263
118.3	7.2111
145	5.6569
286.11	18.111
385.61	30.414
433.71	38.833
462.09	42.72
499.25	42.802
558.61	37.336
634.86	28.792
706.2	19.849
747.45	11.314
760.07	9.8489
737.91	13.416
693.89	15.62
646.12	16.279
603.95	14.318
573.01	13
553.15	13.416
537.71	15.232
519.11	18.682
491.41	21.932
463.26	24.515
458.35	25.298
499.42	23.431
573.13	19.105
651.77	11.662
693.5	4.4721
679.28	9.2195
598.3	18.111
475.1	24.759
378.81	28.443
409.21	26.833
540.32	22.825
668.67	14.142
739.71	4.4721
730.3	5.831
652.36	14.318
515.88	20.616
357	23.022
211.69	21.401
134.4	15.297
134.63	7.0711
137.77	7.0711
107.67	17.889
48.826	27.893
71.063	34.828
176.51	38.053
297.31	37.216
418.84	32.202
527.41	24.083
608.11	13.892
640.59	6.7082
617.4	7
535.7	11.402
400.53	13.454
232.81	13
76.792	12.042
142.61	11.402
261.27	11.705
331.02	11.662
346.18	9.2195
316.13	5.831
276.42	1.4142
279.41	6.3246
339.41	11.18
422	13.928
491.8	14.866
523.59	14.765
2277	16.643
2734.7	17.029
2958.1	24.759
2913.6	33.121
2628.8	37.014
2228.2	35.777
1868.5	28.653
1670.8	17.464
1580.7	9
1434.6	14.142
1118.5	23.022
664.43	29.069
604.76	29.206
1236.1	24.042
1949.2	16.553
2534.2	7
2909	9.4868
3046.6	16.763
2971.3	21.19
2749.4	23.431
2465.6	20.616
2195.3	17.117
1988.7	12.649
1843.7	12.083
1725.9	13.601
1604.2	15.264
1461.1	16.031
1310.3	16.971
1192.2	18.111
1153.9	18.028
1204.7	18.974
1303.3	18.248
1393.7	18.028
1445.2	18.601
1449.4	19.925
1422.7	22
1387.8	25.08
1376.9	26.249
1427.1	25.962
1604.1	24.331
1903.4	20.125
2249.9	18.028
2524.8	20
2600.7	25.495
2386.1	32.894
1842.1	39.459
1010	41.11
296.95	40.262
1215.7	34.928
2158.4	27.857
2784.3	21.401
2947.2	20.396
2578.2	23.409
1715.8	26.833
590.08	26.571
1187.9	22.847
2595.2	15.811
3791.4	10.817
4568.6	13.454
4817.4	20.224
4526.7	24.839
3774.8	25.179
2715.7	21.471
1540.9	15.264
480.38	8.0623
525.93	3.1623
1077.8	7.0711
1342.7	10.817
1359.7	14.142
1232	18.868
1049	24.042
841.46	30.067
580.25	32.65
311.42	33.015
500.68	28.284
997.35	18.788
1482.4	8.2462
1828.8	8.6023
1968.9	21.213
1888.2	31.305
1642.6	37.736
1380.9	41.012
1320.4	38.949
1500	33.121
1749.8	26.077
1901.8	19.105
1896.7	14.036
1758.5	10.63
1561.5	9
1424.5	8.0623
1389.4	5.831
1419.2	7.0711
1418.7	11.18
1331.3	17
1150.8	22.023
917.18	23.77
691.17	22.561
537.29	17.029
470.66	8.2462
432.42	3.6056
359.9	16.155
241.12	28.601
126.91	38.21
218	43.863
393.15	44.407
546.47	40.2
652.76	30.871
703.15	19.416
707.28	7.2801
681.28	5
646.72	13.601
628.01	18.682
628.53	21.26
643.77	21.024
653.43	20.248
644.31	18.028
613.62	16.492
560.53	15
510.97	14.422
488.34	16.763
521.6	19.026
597.34	21.095
678.83	20.591
725.85	16.279
710.77	11.18
623.78	10.296
483.94	17.205
340.85	25.318
321.22	31.305
452	32.202
599.43	28.443
695.07	20.616
712.28	10.44
661.81	10
559.78	18.248
455.8	25.612
384.95	29.017
359.03	26.627
340.48	18.682
290.8	10.63
199.42	12.53
76.694	22.825
69.635	32.696
198.76	38.471
308.24	39.051
390.28	35.468
452.14	28.16
497.3	19.235
529.73	11.402
539.09	8.2462
518.43	11.18
461.41	14.765
365.69	15.811
248.92	14
135.2	12.207
92.114	9.0554
156.72	7.8102
224.54	6
282.25	5
338.73	3.1623
403.13	2.2361
462.22	5.099
512.4	8.0623
537.58	10.198
525.86	12.042
481.35	12.166
3602.6	1.4142
4448.4	11.662
4627.7	22.091
4072.2	29.206
2840.8	32.573
1182.4	31.623
727.64	26.926
2252.2	21.587
3296.3	17.464
3674.3	15.811
3416.8	16.031
2822.2	16.401
2443.4	15.524
2625.7	13.928
2960.2	10.817
2931.9	8.0623
2361.9	7.8102
1486.4	9.2195
1472.7	12.207
2618.6	15
3715.4	16.643
4283.1	17.889
4158.1	17.029
3370.1	13.892
2103.9	9.8995
652.71	8.6023
758.08	11.662
1756.3	17.029
2286	22.361
2355.2	26
2126.4	27.459
1809.1	26.019
1521.4	23.707
1189.7	18.439
665.28	14.422
350.71	14.213
1233.8	20.248
2176.3	26.476
2888.7	28.862
3194.9	28.32
3043	24.166
2542.4	15.133
1975.8	10.817
1727.9	19.105
1813.2	29.53
1800.3	39.013
1404.7	44.654
631.03	44.944
682.73	42.059
1754.9	36.359
2611.7	30.083
2985.1	26
2751.4	22.472
1998	21.095
1302	20.518
1968.1	18
3270.7	15.556
4341.7	13
4883.2	11.314
4796.6	11
4144	10.63
3106.6	10.44
1946.7	11.402
954.11	12.806
512.86	14.036
557.79	15
461.66	15.524
323.02	17.088
659.13	17.205
1079.7	17.029
1312.5	15.811
1266.6	15.811
971.8	17.029
627.08	18.385
750.29	20.1
1208.1	20.616
1590.7	18.248
1771.8	16.971
1748.4	18.682
1583.7	24.698
1372.5	31.78
1197.5	37.59
1116.9	40.2
1168.6	40
1359.5	34.928
1623.9	28.018
1854.1	20.248
1943.2	13.416
1842.2	11.705
1560	11.705
1224	13.038
1064.3	12.728
1201.4	12.207
1422.7	12.083
1519.6	12.166
1416.5	12.369
1139.8	12.042
798.92	9.0554
565.35	9.2195
549.61	12.806
578.69	19.416
491.75	27.803
270.45	33
127.64	37.443
417.33	38.079
677.79	35.511
819.08	29.833
834.96	21.19
763.3	12.042
685.99	2
681.8	8.0623
741.44	15.297
783.87	20.248
777	24.413
723.11	25.71
657.13	25.08
591.29	23.77
534.69	22.204
487.35	19.849
489.17	17.889
564.07	16.492
668.91	14.036
740.59	11.662
734.76	9.2195
647.82	8.6023
513.3	13.892
408.48	21.19
403.54	27.203
451.7	31.401
477.06	31.016
476.49	27.019
503.19	22.023
582.31	17.493
674.26	20
705.11	25
646.61	28.284
487.35	28.071
278.1	24.839
162.36	20
273.98	16.553
362.8	19.209
344.8	25.08
226.27	29.155
157.46	30.017
324.57	29.155
506.91	26.476
612.32	23.259
605.9	20.616
510.56	18.601
404.75	15.232
407.35	10.77
499.61	8.6023
566.75	11.402
533.67	16.401
396.1	19.416
199.25	18.974
176.23	15.811
386.73	11.402
564.57	8
656.81	10.198
661.73	13.454
600.21	15
501.28	15.556
399.28	15.133
299.13	14.765
202.8	15.232
4927.4	21.095
6088.9	25
6668.4	33.838
6523.2	40.249
5741.1	41.785
4658	38.275
3913.1	30.887
4075.2	21.587
4874.4	12.53
5694	5.3852
6209	1
6394.6	4.1231
6315.9	8
6032.1	12.207
5527.1	17.088
4740.7	21.541
3684.3	24.597
2671.9	25.962
2613.1	27.459
3731	25.495
5049.7	23.022
5950.4	18.248
6146.4	10.817
5554.4	2.8284
4287.6	10.05
2739.4	18.601
2039	25
3052.4	26.926
4316.1	25.495
5020.2	20.591
4954.8	15.652
4118.7	18.028
2697.8	24.166
1141.6	28.018
1436.2	29.155
2859.9	24.042
3895.2	16.643
4302.9	11.402
4051.1	17
3243.5	24.759
2086.6	28.231
914.26	26.173
829.38	18.028
1595.3	6.7082
2084.4	13.454
2220.9	29.732
2155.2	43.932
2157.2	53.075
2417.2	57.315
2832.7	54.083
3186.7	48.052
3360.2	39.408
3403.1	33.015
3470.9	30.017
3716.4	28.636
4127.6	25.962
4490.3	21.954
4603	14.318
4324.8	5.6569
3623.5	4.1231
2586.1	10
1398.1	13.601
647.32	16.553
1279.4	20.1
1946.8	25.495
2245	31.145
2185.2	34.713
1921.8	33.015
1752.5	28.018
1891.5	18.028
2203.7	5.099
2424.4	8.544
2408.9	20.224
2158.5	29
1752.5	33.061
1325.4	31.89
987.04	30.017
733.87	30.232
570.78	32.894
810	36.674
1445.3	38.833
2204.8	36.069
2885	31.016
3330.6	24.187
3432.1	21.024
3147.7	23.022
2496.8	25.962
1579.7	25.612
554.48	21.024
565.47	13.038
1403.6	1.4142
1994.9	8.9443
2269.4	18.028
2219.5	23.022
1913.6	24.698
1425.6	21.587
868.59	16.125
393.64	12.53
425.12	13.038
733.57	16.279
942.95	19.647
1002.8	22.204
920.22	23.77
727.36	27.803
519.13	31.623
524.02	33.734
775.66	32.016
1059.4	27.586
1247.2	19.235
1288.5	10.63
1159.3	10.817
876.4	19.698
489.07	26.926
237.23	31.016
580.94	29.682
976.84	24.698
1270.7	16.279
1413.7	8.2462
1406.5	10
1242.4	17.029
961.01	21.84
606.49	24.042
230.08	23.601
148.33	22.091
426.68	19.849
615.16	19.105
682.4	19.209
646.13	19.026
534	18.868
448.4	18.358
514.64	17.029
688.99	16.553
866.89	16.643
972.2	16.031
978.41	17.029
889.13	18.111
729.5	20.248
575.07	23.087
533.29	26.401
642.2	30.083
796.95	32.696
923.16	35.114
970.22	35.355
934.73	34.525
818.81	29
641.41	21.213
444.53	11.705
348.97	3.1623
473.11	10
675.46	17
852.28	19.026
943.15	17.205
934.64	10.44
840	2.2361
693.66	11.662
574.19	21.19
554.48	27.203
590.36	28.844
604.35	26.306
530.01	19.723
367.29	16.279
136.53	20.616
200.25	27.893
460.02	33.121
655.78	33.838
749.26	29.155
3959.2	27.295
4924	26.249
5753.5	31.145
6205.8	38.013
6171.2	44.553
5680.1	45.398
4949.7	42.059
4466.2	34.886
4716.7	23.195
5661.1	11.314
6790.2	1
7653.6	8.2462
7990.7	12.806
7694	13.153
6784.7	11.402
5448.3	14.422
4122.9	21.541
3614.8	29.967
4327.2	35.511
5494.4	37.483
6404.4	33.956
6731	25.632
6399.3	13.038
5510.7	3.1623
4349.2	16.031
3442.5	27.019
3350.5	33.838
3892.8	34.713
4407.5	30.48
4494.5	21.541
4051.5	10.05
3144.2	7
1994.3	17.117
1108.6	25.807
1435.2	29.547
2203.9	26.306
2730	19.105
2880.4	8.0623
2701.9	6.7082
2293.7	17.493
1780.2	25.632
1256.9	28.46
806.95	24.698
630.9	16.763
896.04	8.9443
1326.1	21.471
1702.6	38.079
1931.1	53.666
1965.3	63.977
1902.2	69.123
1976.6	68.007
2429.1	60.299
3187.3	50.448
4025.3	38.833
4761.8	31.623
5260	29
5452	28.636
5309.5	26.401
4838.7	20.591
4082.6	14.142
3086.5	15.297
1974.8	24.515
1068.2	34.409
1311.7	41.976
2205	42.942
2985.5	39.925
3461.3	33.242
3581	23.77
3420.6	14.422
3111.1	10.296
2870.2	12.649
2823.3	16.492
2897.9	20
2896.2	23.087
2653.2	25.495
2128.6	28.284
1391.9	30.414
837.17	31.906
1300	32.14
2150	31.623
2874.3	31.145
3323.6	29.547
3446.2	27
3251.4	21.932
2783	16.971
2120	12.207
1355.6	9.434
567.07	9.8489
162	10
737.94	10
1143.8	9.0554
1365.5	9.2195
1421	10.77
1356.7	13.153
1229.2	16.279
1094.7	20.025
961.29	23.345
801.69	25.02
606.6	25.239
413.27	23.259
395.8	19
556.71	16.279
702.17	16.279
711.03	21.541
557	26.87
249.84	29.12
200.32	29.411
648.08	26.077
1046.4	21.587
1305.5	18.788
1360.7	18.358
1187.4	18.682
817.45	18.385
340.8	17.029
421.72	14.866
954.77	13.342
1409.2	13.038
1684.9	13.153
1749.5	12.083
1599.1	9.434
1277.2	8.2462
869.3	13.153
529.74	20.125
536.71	25.239
772.6	29.017
956.83	30.48
1009.7	31.145
952.61	30
855.86	28.284
840.21	24.413
965.2	19.647
1142.2	13.601
1284.2	6.4031
1317.8	6.0828
1248.2	12.042
1095.4	16.971
928.84	20.1
837.11	24.187
867.68	30.463
967.02	38.897
1052.8	46.957
1076.2	51.624
1012.6	51.546
870.06	45.793
671.86	35.511
463.32	22.472
355.05	12.728
437.61	15
590.4	22.472
696.9	26.926
731.32	27.313
676.71	22.804
557.21	18.385
409.3	19.235
267.09	24
165.59	29.069
124.42	31.064
152.86	30.414
239.97	27.019
344.22	22.023
430.69	19.416
455.38	17.464
416.62	18.385
304.79	17.889
210.38	18.111
282.94	16.643
4215.3	32.016
5261.5	36.359
6228	45.222
6806.7	52.839
6838.7	56.886
6343.8	55.317
5543.9	48.01
4988.6	36.797
5222	25.08
6180.9	18.028
7270.4	17.205
7987.8	19.723
8080.4	21
7473.3	22.472
6280.9	26.833
4767	32.016
3476.4	37.121
3252.3	38.484
4088.8	34.366
5102.2	26.249
5770.5	16.155
5923.2	5.099
5568.4	4.4721
4831.9	9.4868
3967.9	12.042
3352.9	12
3315	15.033
3719.9	20.025
4152.2	23.77
4309.1	24.759
4078.7	20.881
3475.8	12.166
2680.6	1
2054	11.705
2070.9	21.378
2582.8	27.586
3049.8	27.459
3190.6	21.954
2927.3	13
2299.2	13.038
1438	22.847
556.78	31.016
503.16	33.121
1031	27.893
1303.2	19.647
1306.9	20.616
1209.4	36.878
1244.1	56.08
1457.3	70.838
1687	79.831
1858.6	80.112
2112.9	73.355
2702.9	60.877
3653.3	47.885
4741.9	39.357
5702.4	35.128
6303.1	34.828
6378.3	32.558
5876.5	27.295
4856.2	22.204
3471.4	24.042
2062.2	32.016
1493	41.34
2253.3	46.487
3140.3	47.434
3682.6	43.012
3807.4	33.015
3603.7	21.932
3221.9	10.198
2867.3	9.434
2649.5	16.031
2573.5	21.932
2493.5	24.187
2304.5	23.707
1949.9	21.095
1435.2	19.105
798.12	18.248
228.3	19.698
805.1	25.495
1588.6	31.385
2309	37.216
2889.5	39.408
3254.1	37.162
3324.7	30.265
3078.9	20
2535.1	6.7082
1769.2	7.2111
916.14	18.868
504.28	26
1030.8	28.601
1513.9	25.71
1727.7	20.616
1649.3	18.974
1335.2	24.083
918.67	31.828
582.33	37.216
552.26	37.216
660.45	32.202
644.65	23.087
463.26	10.296
167.72	5.6569
171.14	17.692
442.38	26.683
580.64	32.311
553.97	34.482
415.23	33.541
397.96	29.833
662.67	25.02
969.04	20.518
1175.5	14.318
1216.1	9.2195
1085.9	7
837.06	11.045
573.82	16.763
543.54	20.616
765.39	22
1017	20.616
1208.5	17.117
1329.1	12.042
1358.8	10
1302.8	14.318
1147.1	20.616
902.36	27.295
636.39	31.78
555.51	33.541
773.93	32.558
1064.1	29.411
1267.1	24.187
1351.6	19.235
1324.9	14.866
1259	12.806
1233.1	12.083
1287.1	12.042
1352.4	11.705
1365.5	12.207
1283.9	13
1110.1	15.62
900.89	20.616
732.31	26.571
681.39	33.422
726.23	39.459
777.42	43.463
783.53	44.654
726.7	41
615.03	33.601
457.76	24.331
260.11	16.279
158.69	15
337.8	20.396
564.77	25.06
738.69	25.962
820.69	25.06
802.15	23.259
690.42	22.091
515.69	25.612
323.19	29.614
161.3	32.202
51.078	32.14
61.008	30.414
128.23	27.019
219.2	23.345
312.33	20
357.11	17.692
331.21	17.263
218.43	15.811
46.239	14.213
4771.7	44.102
5149.1	45.343
5434.4	47.17
5620.1	50.448
5730.5	52.612
5813.4	52.479
5943.5	49.396
6168.1	42.45
6502.7	32.802
6880.3	20.025
7188.4	9.4868
7309.5	11
7162.5	21.401
6728.9	29
6051.5	34.132
5243.9	35.777
4452.4	34.132
3873.6	29.206
3626.5	23.087
3722	17.088
4021.7	12.083
4398.2	9.434
4746.2	9.0554
4997.1	9.434
5076.5	8.0623
4959	7.6158
4663.7	8.2462
4258.2	10.05
3865.2	12.649
3606.9	13.601
3515.4	13
3504.4	11.402
3452.1	11.705
3262.5	12.166
2923.3	15.556
2463.1	18.111
1967.6	20.809
1505.7	21.84
1140.6	23.259
905.5	25.08
791.01	26.249
765.76	25.554
769.8	24.187
763.23	23.431
725.46	25.632
694.52	32.985
744.3	43.267
905.64	53.852
1139.2	62.394
1416.5	67.956
1787.8	70.007
2313.9	67.424
3018.6	62.032
3838.6	53.6
4654.9	44.204
5336.2	34.132
5747.9	26.627
5828.8	22.847
5539.1	24.187
4928.1	27.586
4113.4	32.14
3293.9	36.878
2753	40.05
2731.6	43.139
3090.6	44.283
3528.3	42.19
3832.3	38.275
3922.3	29.732
3787.5	21.024
3462.9	13.454
2992.5	14.422
2451.7	21.024
1903.2	26.627
1415.9	27.731
1022.8	25.08
684.62	20.1
387.96	19
441.98	25
954.82	32.985
1587.1	40.224
2211.9	43.909
2726	42.048
3050.9	34.886
3125.6	24.698
2948.4	12.042
2545.7	3.6056
1987.6	13.038
1411.9	20.881
986.8	25
905.15	24.413
1030	23.195
1112.8	20.248
1052.6	20.616
859.46	24.352
616.55	27.857
485.12	29.411
576.72	28.071
732.51	23.77
815.14	17.692
762.98	10.63
586.15	7.6158
313.13	13.153
30.594	19.313
350.6	24.759
637.43	29.155
838.5	31.064
936.78	29.682
929.65	28.178
844.95	25.08
713.4	19.416
613.18	14.318
595.02	9.0554
655.13	5.099
751.1	7.8102
834.54	13
909.66	17.263
963.79	20.518
1010.9	20.224
1058.5	17.205
1083.9	14.142
1092.9	15.297
1082.7	23.345
1045.4	32.016
1001.7	38.419
967.38	41.485
951.77	39.85
981.01	34.059
1054.8	24.515
1155.6	13.342
1256.3	6.0828
1328.1	11.314
1353.7	17.464
1326.9	21.213
1244.2	22.627
1122.1	21.213
991.67	19.235
878.53	17.493
802.91	15.297
780.84	17
795.86	22.804
820.23	30.61
830.67	39.395
806.84	45.277
737.16	47.508
630.21	44.385
499.12	38.013
380.01	29.12
336.82	22.627
399.57	23.77
511.7	28.636
613.65	33.838
666.42	34.928
670.94	33.121
629.67	29.411
536.62	25.554
429.63	23.195
335.97	23.431
290.41	24.515
301.76	24.698
323.51	24.083
314.41	23.409
273.35	23
190.54	22.847
81.744	21.26
65.307	18.439
178.97	13.928
4720	50.04
4905.4	54.818
5066.1	58.464
5231.2	59.506
5433	57.801
5715	52.154
6096.2	44.204
6559	34.176
7021.2	22.561
7386.2	12.806
7532.2	5
7399.9	8.6023
6992.9	14.56
6358.6	20.224
5597.8	24.698
4842.1	28.844
4205.8	30.265
3795.5	31.016
3666.7	29.206
3798.1	26.077
4126.3	21.633
4528.6	16.279
4890.3	13.601
5125.8	11
5162.9	9.8995
4998.1	6
4661.8	1
4221.9	5.3852
3756.6	11.18
3357.2	17.029
3087.3	20.025
2973	20.616
2983.4	20.1
3027.8	19.105
3025.8	18.682
2899.8	23.087
2616	27.785
2188.7	31.321
1659.5	33.106
1110.5	31.78
632.99	27.514
354.25	23.77
306.81	21.633
263.25	23
239.08	28.32
499.72	34.059
919.51	39.962
1361.4	45.651
1750	51
2044.1	57.245
2249.2	61.855
2446.5	65.276
2759.2	66.212
3274.6	63.514
3968.8	57
4715.4	47.202
5365.1	35.693
5767.6	26.907
5820.2	24.042
5486.5	30.364
4801.2	36.674
3906.8	41.677
3088.2	43
2752.7	42.059
3044.6	39.408
3577.7	34.525
3982.5	28.16
4095.5	22.023
3897.7	16.125
3466.6	14.56
2920.1	19.105
2382.7	26.173
1913.7	30.414
1497.6	30.529
1081.4	26.077
641.25	17.464
486.35	10.05
919.75	16.401
1492.9	28.231
1999.2	37.014
2391.4	41.677
2637.2	41.183
2727.9	35.014
2679.9	25.807
2502.9	15.524
2216.1	7.2111
1870	8.9443
1541.9	13.928
1313.6	18.028
1227.7	20.1
1217.5	20.616
1170.3	22.023
1018	23.195
744.71	24.597
387.28	25.942
130.12	27.295
399.59	27.586
644.93	24.515
759.5	18.788
729.96	10.77
577.01	4
367.09	12
247.1	21.26
377.96	27.514
558.7	30.265
696.42	28.653
767.68	26.173
784.17	23.022
766.09	23.707
730.69	24.739
688.65	25.179
667.5	20.591
688.01	13.601
755.6	5
838.59	7.6158
914.39	16.031
965.68	21.471
990.59	22.847
1007.1	21.471
1033.4	21
1066	25.495
1082.4	35.341
1066.6	43.081
1024	49.041
982.73	48.01
987.02	43
1065	32.802
1189.7	19.647
1304.2	5.831
1366.5	8.6023
1367	19.235
1303.2	25.495
1201.2	27.785
1082.6	26.019
979.03	20.591
906.07	13.454
870.11	11.705
871.49	18.385
890.4	26.907
911.77	34.54
909.05	39.459
867.62	40.608
792.79	39.925
682.07	37.216
561.38	32.202
447.7	27.731
375.59	23.195
354.05	20.518
379.09	18.111
437.5	20.248
506.14	23.77
566.93	29.155
606.44	32.558
599.3	35.609
538.7	37.014
429.61	36.125
293.45	33.377
180.69	30.017
196.22	25.08
286.82	20.224
360.61	15.264
368.88	11.402
314.55	13.454
214.98	18.028
114.63	21.095
159.77	22.361
3644.8	56.886
4117	65.924
4755.6	70.456
5445.2	71.028
6087.6	65.192
6621.1	55.154
6981.9	42.45
7157.2	28.018
7160.4	17.464
7034.4	10.44
6823.5	7.8102
6575	6
6297.5	4.1231
5986.6	9.8489
5630.9	18
5242.1	25.554
4838.8	32.202
4456.5	35.511
4155	36.069
3963.7	34.234
3950.2	30.017
4128.8	23.77
4440.8	15.811
4783	8.0623
5023.5	2
5067.8	7.2801
4891.5	12.207
4509.2	15.033
4014.8	16.401
3491.1	15.811
3048.9	14.56
2760.1	12.806
2673.8	11.045
2730.3	12.042
2850.1	14
2913.4	18.439
2817.8	23.77
2502.7	27.514
1976	30
1288.5	30
570.79	28.425
118.51	25.08
497.29	24.759
643.31	27.295
563.79	33.422
616.09	40.05
1076.3	44.721
1643.7	49.041
2090.6	52.202
2315.1	55.082
2332.5	57.775
2363.1	60.811
2701.1	62.032
3418.9	59.304
4292.2	54.406
5079.1	46.819
5587.4	37.947
5742.5	31.78
5526.6	29.967
5014.2	32.894
4311.2	35.735
3586.3	38.288
3051.3	37.855
2922.2	36.878
3190.7	34.409
3606.3	31.385
3926.8	28.071
3994.7	24.166
3761.5	21.095
3261.1	19.235
2597.5	20
1953.3	21.024
1527.5	22.804
1381	21.541
1336.2	18.111
1238	12.53
1151.3	5
1250.9	7.2111
1563.4	17.692
1901.8	26.571
2123.9	34.234
2191.1	38.275
2156.4	38.949
2152.7	35.014
2251.6	27.295
2392.6	17
2460.5	7.6158
2366.5	7.8102
2096.7	15.033
1722.4	21.095
1347.6	25
1090.7	27.857
957.96	29.155
840.07	31.575
662.74	33.121
487.82	32.65
516.11	29.12
704.35	22.361
846.44	13.454
845.75	4.4721
679.4	10.817
403.71	20.1
95.88	27.203
199.62	30.414
367.64	29.017
438.25	25.298
505.21	19.416
704.86	15.62
1004.7	15
1288.4	16.971
1448.5	17.464
1434.8	16
1233.9	10.817
890.59	5.099
521.73	4.2426
459.04	10.198
752.48	15
1040.5	19.105
1233.4	22.023
1307.8	24.331
1296	29.682
1207.5	35.511
1068.7	41.11
891	45.177
742	45.651
711.98	41.593
852.39	34.234
1078.3	22.672
1295.4	10.05
1452.6	7.0711
1547.3	17.464
1559	26.249
1493.3	30.414
1346	29.411
1122	23.345
853.98	14.422
647.52	8.544
673.75	18
875.96	29.411
1077.4	38.949
1173.1	44.011
1150.4	45.177
1014.7	41.34
827.42	36.056
646.13	28.636
491.19	23.195
350.85	20.125
211.23	17.804
209.33	18
421.57	19.799
649.82	24
807.02	29.698
845.45	36.125
751.77	40.497
542.5	43.658
261.31	42.72
48.104	38.419
266.13	32.062
402.02	23.707
415.02	15
329.24	7.8102
177.8	9.4868
79.158	16.643
158.24	21.471
195.78	24.187
134.65	24.839
6108.9	54.12
6602.4	65.924
6361.2	74.202
5510.8	75.24
4463	70.576
4107	60.308
5070.5	46.573
6724.1	31.78
8245.6	19.416
9208.7	12.806
9377.8	11.18
8709.9	8.0623
7292.8	2
5368.7	10
3440.2	22.361
2689.9	33.106
3820	40.817
5337.7	44.011
6454.6	42.438
6925.2	36.77
6685.1	27.459
5776.1	16.279
4317.9	7
2581.6	3.6056
1586.6	8.0623
2901.1	9.8489
4717.6	9.4868
6173.1	7.2111
6986	5
7019.2	4.1231
6255.2	5.099
4810.3	9.434
2913	15.232
857.84	21.378
1082.6	26.87
2606	30.414
3597.9	32.65
4044.5	30.871
4081.4	29.12
3911.6	25.554
3687.2	24.739
3411.8	24.698
3014.7	26.019
2548.1	27.295
2394.8	29.732
2951.7	34.928
3885.3	42.107
4642.8	48.384
4865.1	53.814
4342.7	56.462
3080.6	56.009
1220.2	52.393
1130.8	48.104
3319.5	44.294
5205.8	43.738
6473.8	44.721
6961.4	45.804
6671.5	46.098
5727.2	44.911
4408.5	44.045
3069.8	41.012
2223.8	38.949
2285.5	36.346
2876.4	31.305
3528.4	24.413
4104.2	18.385
4561.5	17.464
4793.7	24.352
4706.8	33.061
4207.3	39.446
3307.3	41.593
2078.2	38.328
686	31.145
741.57	21.095
1937.1	10.296
2817.2	11.402
3318.8	19.105
3447.3	24.331
3281.7	26
2911	24.207
2382	18.974
1730.4	16.125
934.47	16
98.082	19.313
1032.6	21.401
2048.9	22.091
2910.9	24.207
3487.9	26.476
3683.3	30.232
3458.3	31.257
2869.8	29
2062	23.77
1337.3	15.297
1204.5	9
1598.5	13
1916.6	22.023
1954.2	27.785
1696.4	30.083
1286.2	28.231
969.74	26.926
1001.2	26.249
1199.5	28.071
1278.3	29.206
1184.7	28.071
1059.1	23.345
1170.2	15.297
1546.6	4.1231
1952.6	7.2801
2190.1	17.464
2175.6	24.083
1873.3	26.173
1341.2	23.324
674.07	17.464
202.74	9.8489
746.57	3.6056
1236.7	8.6023
1541.3	13.601
1660.4	16.125
1607.2	17.464
1429.2	20.248
1153.4	26.907
797.72	36.056
400.09	43.566
246.98	48.166
677.01	50.22
1155	46.519
1561.8	39
1851.2	30.017
1981.6	25.02
1940.8	26.401
1742.4	30.887
1426	32.28
1042.3	29.547
649.94	22.361
403.12	10.77
512.19	4.4721
767.17	15.556
1007	23.345
1180.3	27.514
1265.3	27.659
1246.7	25.807
1133.1	26.42
919.47	30.676
641.71	36.014
367.68	39.56
312.61	38.949
513.69	34.928
716.65	27.893
834.27	19.849
849.52	14.318
772	12.042
626.57	14.866
452.33	21.401
296.52	31.016
210.24	39.661
246.01	47.539
323.06	50.99
391.43	47.381
438.41	38.639
449.39	24.166
426.17	7.6158
385.16	10.198
382.96	25.06
465.38	33.541
595.81	37.483
738.45	35.355
6317.8	48.26
6882.3	63.285
6621	73.824
5627.7	77.666
4266.3	75.107
3557.1	65.765
4563.5	51.971
6478.5	35
8260.2	18.358
9416.6	5.3852
9711.5	8.4853
9057	14.866
7558.5	18.439
5456.4	19.209
3282.2	20.025
2556.9	20.248
4080.6	21.471
5864.9	23.022
7087.7	25.632
7508.8	28.284
7077.3	31.016
5861.8	30.265
4073.2	25.807
2104.2	18.385
1647.6	8.2462
3365.6	4.1231
5069.2	14.142
6246.7	21.378
6751.4	23.087
6564	21.932
5738.5	16.125
4404.9	11.402
2743.7	15.811
979	24.083
786.87	29.833
2260.8	32.311
3399	31.765
4120.4	30.364
4395.9	30.083
4239.7	33.106
3711.4	35.341
2942.5	35.128
2175.8	33.121
1944.2	29.069
2511.6	29.698
3362.5	36.235
4068.2	46.098
4398.9	54.148
4237.2	57.871
3559.3	56.727
2421	51
1080.4	44.911
1346	39.013
2965.5	36.674
4500	39
5656.2	41.773
6285	44.777
6315.7	46.098
5785.6	46.872
4822.9	46.065
3677.5	44.102
2793.7	41.881
2728.9	37.59
3363.1	32.14
4097.9	25.962
4596.6	19.698
4770.1	17.088
4632.9	21.19
4232	28.018
3637.1	33.287
2901.5	36.056
2069.8	35.355
1203.4	30.871
731.58	24.352
1367.7	19.647
2274	18.439
3068.2	21.84
3601.2	24.187
3778.1	24.331
3569	19.799
2966.1	14.56
2042.9	8.2462
935.36	9.2195
511.14	17
1568.3	25.08
2515.6	30.48
3166	35.693
3470.1	37.121
3426.3	35.341
3090.2	31.575
2578	24.083
2048	14.142
1666.3	4.1231
1543.7	7.0711
1588.6	15.652
1635.7	21.954
1590.9	25.318
1477.6	26.907
1322.5	27
1195.7	26.249
1104.7	25.495
1021.7	24.597
951.09	23.324
943.97	20
1061	16.553
1313.7	12.042
1607.2	6.7082
1846.6	3.1623
1954.2	8.2462
1896	14.036
1658.8	18.868
1254.2	20.591
740.37	20.1
233.94	15.62
517	11.705
1016.8	13.038
1408.2	18.868
1640.2	24.187
1687.4	25.807
1565.5	24.698
1291.2	21.541
894.01	23.77
453.19	30.806
264.88	39.623
668.15	46.861
1110.3	49.729
1486.1	47.854
1751.8	43.966
1901.5	41.049
1905.3	41.012
1778.6	42.521
1519.1	41.304
1165.2	36.62
754.08	29.12
448.91	23.345
555.83	23.324
876.36	28.178
1163.5	31.321
1346.1	28.231
1398.3	19.416
1310.2	6.7082
1113.7	12.649
830.64	29.017
498.98	41.881
205.41	49.244
269.13	49.649
507.74	43.186
694.46	31.321
795.35	17.029
817.27	9.434
763.64	19.799
642.26	32.28
484.15	42.059
305.67	48.26
176.57	50.16
205.23	49.518
324.17	45.541
413.49	36.715
467.11	26
453.18	14.866
393.79	4.1231
335.65	9.8995
320.76	17.117
410.24	21.541
555.93	23.345
698.6	22.847
7336	35.609
7270.9	52.326
6188.7	67.067
4441.6	77.389
2963.2	80.957
3534.4	76.42
5430.2	65.605
7189.3	48.104
8347.3	27.459
8798	5.6569
8603.6	13.601
7894.3	28.16
6811.7	36.878
5474.6	38.639
4069	33.838
3118.9	25.495
3489	16.401
4863.2	13.601
6284.8	19.849
7220.5	26.401
7355.6	29.428
6582.4	29.833
4951.2	28.071
2707.1	25.807
955.4	24.352
2969.7	25
5179.4	24.413
6754.5	24.187
7470.4	20.518
7272.9	16.031
6264.9	11.705
4627.7	9.8489
2644.7	14.213
596.73	21.19
1272.5	29.069
2770.8	35.44
3798	40.804
4321.5	42
4367.5	41.34
4000.2	38.079
3301.6	32.14
2426.3	26.306
1728.7	23.77
1918.8	25
2818.7	29.967
3744.8	36.125
4356.4	39.446
4510.7	41.976
4122.5	42.19
3244.2	41.785
2062.4	40.224
1257.2	38.949
2026	38.588
3321.7	38.626
4418.4	39.812
5152.8	43.012
5473.2	47.074
5428.5	51
5078.2	53.038
4503	53.712
3789.4	51.157
3069.3	46.84
2634.2	40.804
2829.9	32.202
3585.8	23.409
4471.3	15.811
5167.3	13.038
5468.1	17.029
5278.5	23.707
4579.9	29.155
3463.9	32.311
2120.3	32.202
1041.5	31
1502.1	28.32
2524.2	26.019
3268.9	25.495
3605.8	26.077
3535.1	25.495
3118.4	24.021
2498.3	18.601
1810.5	11.705
1175.4	2.2361
687.34	9.8489
510.68	20.224
847.46	29.069
1434.8	36.401
2100.2	38.897
2727.2	39.205
3196.8	35.057
3422.7	27.295
3370.7	18.358
3050.9	9.0554
2571.3	3.1623
2100.2	10
1844.8	17
1873.8	21.633
2006.4	24.187
2038.4	25.298
1873.3	24.759
1530.5	24.166
1079.6	24.021
665.54	24.166
547.03	22.804
740.23	20.1
966.43	17
1160.2	12.369
1351	9.2195
1556.9	8.9443
1726.3	12
1794.6	14.866
1691.4	18
1419	18.385
1003.1	19
645.51	19.105
779.94	19.026
1231.2	19.209
1635.8	18.974
1851.8	17.464
1851.8	14.422
1630.7	12.728
1231.8	13.454
725.29	19.209
252.01	26.926
429.94	34.059
846.92	40.817
1184.2	46.141
1445.4	48.042
1637.7	48.01
1762.3	45.541
1815.9	40.497
1754.6	35.777
1557.1	30.463
1229.5	27.893
791.08	27.659
377	30.017
445.41	31.145
838.22	31
1161.5	28.32
1349.6	22.204
1384.3	13.601
1278.3	3.6056
1078.5	11.402
828.42	23.324
557.19	34.54
324.56	41.773
276.03	45.255
451.32	42.202
660.72	34.205
828.12	21.401
917.81	8.9443
905.35	17
782.3	32.757
582.49	46.325
339.28	55.227
210.24	58.189
346.28	54.918
493.17	46.861
568.99	35.114
550.97	21.587
451.27	8.0623
329.88	7.2801
244.5	14.765
286.5	20
391.26	21.932
506.57	20.518
617.52	19.416
6329	36.62
5894.8	50.804
4721.7	62.817
3100.6	71.197
1862	74.404
2658.2	72.007
4372.3	63.008
5900	48.877
6977.9	30.414
7517.4	12.083
7511.3	10.77
7001	24.187
6054.3	34
4762.7	38.053
3300.1	35.511
2175.4	28.302
2498.4	17.464
3882.2	9.434
5277	15.652
6268.6	24.759
6632.3	32.894
6250.9	36.139
5097.1	35.468
3284.2	33
1093.9	29
1768.1	25.179
4114.7	25.06
6058.8	26
7286.8	25.632
7619.6	22.847
7026.1	18.974
5610.1	13.454
3613.2	15
1356	23.195
827.1	33.302
2632.5	41.195
3885.1	46.519
4523.6	47.202
4602.4	42.953
4274.5	36.222
3677.2	28.16
2898	25
1997.4	27.893
1327.7	32.311
1815.6	36.056
3031.5	36.069
4184.1	35.228
4907.1	34.482
4994.7	36.249
4383.2	40.804
3214.4	44.102
1976.7	43.738
1990.6	39.395
3184.5	32.249
4273.2	28.636
4891.4	33.838
5025.5	44.283
4916.3	53.907
4827.6	59.169
4833.2	56.886
4740.2	50.636
4290.9	40.311
3474.3	30.529
2799.7	25.554
3276.3	25.554
4673.9	25.612
6038.1	22.023
6800.8	15.811
6705.8	13.038
5721.8	20.616
4022.1	30.61
1960.6	37.577
736.04	41.304
2237.4	41.012
3428	38.053
3945.2	34.655
3861.1	33.061
3412.4	32.65
2960.6	29.069
2704.8	23.345
2528.7	14.142
2139.5	7.6158
1384	17.464
437.66	28.844
1172.2	37.014
2385.6	41.34
3345.5	40.311
3884.4	34.132
3928.6	26.683
3530.1	19.698
2844.2	16.553
2077	15.652
1500.5	13.892
1364.5	12.207
1560.9	10.77
1799.8	14.318
1951.1	20.616
1964.9	27.586
1793.9	31.385
1424.8	32.14
899.68	30.232
485.06	25.942
844.63	20.025
1429.8	14.765
1865	9.434
2072.3	6.0828
2045.8	3.6056
1857.4	4
1599.2	5
1335.1	8.0623
1066.7	12.042
749.31	15.033
361.45	18.601
443.08	21.84
994.17	23.77
1516.9	23.854
1877.2	23
1997.8	19.723
1853.5	15
1473.8	9.434
932.45	10
328.32	16.643
272.12	25.612
731.9	33.526
1057	40.447
1257.3	45.486
1367.7	48.877
1429.9	49.092
1451.4	47.424
1410.4	43.267
1273.7	37
1041.2	30.48
736.22	26.019
383.36	26.077
88.685	30.083
261.32	33.601
462.03	34.015
591.42	31.385
672.69	22.825
737.71	11.045
807.49	2.2361
862.53	16.125
872.53	28.071
803.51	37.336
642.05	41.725
436.59	41.785
323.36	38.013
478.66	30.083
707.61	18.868
880.41	9.2195
935.5	15.264
859.77	27.731
684.55	39.319
458.01	48.765
261.77	53.151
199.01	52.924
231.01	48.26
195.87	39.205
124.2	27.203
234.1	16.643
448.54	13.342
655.63	15.524
780.57	18.788
825.06	18.028
793.28	14.56
716.48	10.44
4785.9	38.91
3707.2	48.795
2393.6	56.356
1523.1	60.671
1963.4	62.37
2832.4	61.294
3424.8	55.471
3648.9	46.53
3639.6	34.54
3635.3	21.471
3744.7	14.142
3887.3	20.591
3862.3	30.676
3535	35.903
2898.6	36.069
2123.8	30.676
1651.6	19.235
1944.4	5.3852
2637.4	10.198
3246.4	23.537
3613.7	33.971
3693.6	39.85
3506.4	40.522
3116.8	38.419
2602.9	34.015
2177	29.698
2167.9	26
2701.8	24.042
3499.5	22.023
4265	17.804
4806.4	13
5001.3	10.44
4794.5	16.279
4195.5	24.083
3291	31.78
2236	38.288
1458.3	41.437
1678.9	42.012
2465.1	39.217
3155.1	34.67
3564.8	27.586
3722.7	21.213
3752.9	18.868
3811.1	21.541
3918.7	26.401
3938.2	30.232
3694.2	30.414
3122.3	29.206
2457.7	27.203
2462.7	27.203
3447.8	29.411
4678.6	30.887
5602.6	31.623
5908.2	28.443
5505.2	22.361
4501.7	21.024
3239.7	27.203
2423.4	37.736
2656.8	48.083
3233.6	53.009
3363.9	52.555
2790	45.453
1553.5	33.601
311.04	21.633
2070.2	17.205
3753.4	22.361
4972.4	27.203
5555.9	26.401
5459.3	18.788
4796.6	9.2195
3792	18
2727.1	34.525
1891.1	48.826
1446.8	57.706
1258.9	60.033
1187.6	55.471
1329.2	44.944
1703.5	31.385
2104.8	20.224
2331.4	18.028
2281.2	23.345
1952.9	29
1439.8	31.89
953.14	31.257
776.12	29.155
991.85	25.632
1322.1	20.616
1733.7	15.62
2234.1	11.402
2773.6	11.314
3228.4	13.601
3472.6	16.763
3431.8	16.279
3096.9	12.728
2518.5	7
1832.7	6.7082
1199	15.133
816.61	22.361
776.87	28.601
860.01	30.806
940.18	30.265
1063.5	27.857
1254.5	25.554
1460.7	24.207
1585.4	24.083
1588.9	23.707
1464.6	19.416
1263.3	13.153
1044	4.4721
877.92	5
788.2	14.56
775.54	23.087
848.08	28.636
988.19	32.527
1167.8	32.65
1317	30.594
1391.4	27.019
1345.8	23.345
1197.1	19.416
981.19	17.117
792.68	19.026
708.82	23.195
770.76	27.203
886.16	31.906
984.86	35.609
1042.4	37.363
1062.7	38.639
1053.5	39.051
1015.7	38.897
945.43	38.601
849.61	40
732.95	41.012
604.95	41.34
483.41	39.812
386.5	36.222
331.6	30
352.55	21.932
441	13.153
557.55	4.4721
660.26	5.3852
721.52	12.207
733.3	18.248
696.27	22.561
621.7	25.239
531.13	27.459
435.19	28.284
363.92	26.249
336.04	22.023
385.47	16.031
487.28	10.77
604.23	15.264
687.9	24.042
708.48	33.601
645.79	40.05
518.89	44.294
344.01	44.944
151.92	42.048
36.235	37.162
104	30.48
89.107	24.042
25.495	19.026
218.22	14.318
466.57	11.314
719.67	8.2462
913.38	5.831
1024.9	4
4241.4	32.249
3317.5	39.812
2406.5	45.255
1721.4	49.659
1336.2	51.245
1210.7	51.662
1411.6	49.649
1983.9	45.486
2731.5	39.623
3402.2	33.242
3801.3	24.839
3839.3	19.105
3527.7	17.889
3005.7	21.932
2539.6	26.833
2365.8	28.16
2455.7	25.612
2571.7	19.647
2593.4	10
2616.2	10.296
2835	22.847
3279.5	35.511
3763.3	45.1
4068	49.769
4067.3	48.836
3765.8	43.324
3308.3	34.059
2946.8	21.932
2893.6	10
3105.6	2
3382.4	12
3587	21.378
3730.3	29.53
3859.8	36.069
4002.3	40.706
4081.5	42.579
3988.6	40.792
3639.5	34.986
3045.5	26.249
2322	15.652
1729.6	7.2111
1652.5	7.0711
2045.5	11.18
2517.2	14.036
2893.3	14.036
3155.9	14.036
3369.4	14.036
3579	14.036
3796.8	14.142
4004.1	14.56
4166.4	12.649
4261	11.402
4244.4	11.402
4076.9	10.198
3709.1	9.0554
3119.8	7.2801
2331.1	12.806
1468.3	21.633
874.49	30.676
1113.3	37.054
1589.4	38.91
1829.4	36.125
1774.6	28.46
1621.3	17.029
1840.3	5
2609.2	8
3595.2	15.811
4468.5	19.105
5034.7	15.811
5179.4	8.6023
4881.1	9.434
4191.8	22.847
3240	37.443
2200.2	49.163
1324.7	56.08
989.52	56.727
1214.2	51.662
1470.2	42.202
1588	27.586
1607.7	13
1620.7	10.77
1690.2	22.561
1769.4	32.573
1790.7	38.897
1707.3	39.925
1571.8	36
1509.3	29.411
1661.2	19.723
2008.3	13.416
2419.9	13.153
2764.4	15.297
2966.4	15.652
2990.6	12.207
2831.1	6.0828
2528.8	7.0711
2122.6	16.031
1671.1	23.854
1233.9	29.155
865.83	30.265
637.75	27.659
610.23	22.825
748.27	18.028
961.09	16.643
1185.5	17.205
1373.5	18.439
1491.1	17.72
1511.9	14.318
1426.1	10
1253.3	8.544
1056.2	10.198
917.76	13.928
929.75	16.971
1060.3	18.358
1204.8	20.616
1289.5	23
1293.1	24.042
1213.5	23.022
1091.8	19.209
958.12	13
843.45	6.4031
773.87	9
737.15	17
760.7	24.042
830.73	28.844
930.13	32.016
1024.9	34.015
1075.1	36.674
1059.1	41.11
965	44.777
806.49	48.795
614.77	49.649
457.2	48.662
416.21	44.822
496.88	38.275
603.08	29.833
686.53	22.023
728.7	15.033
732.06	9.434
709.94	8.544
657.19	8.9443
575.6	9
476.59	11.402
377.3	13.892
321.06	18.601
360.07	22.361
458.87	25.298
571.83	25.612
663.92	24
725.89	21.932
746.03	21.024
723.26	22.804
664.15	26.173
575.46	29.732
467.52	33.526
346.87	35.511
219.11	35.511
100.3	35
26.683	33.526
136.3	32.062
252.12	30.463
376.97	26.87
492.68	21.932
601.81	16
683.55	10.77
734.81	5.831
740.56	3.1623
4192.8	30.806
3731.5	34.366
3160.7	36.235
2535.8	36.069
1947.7	36.674
1591.5	37.483
1672.6	38.328
2092.5	39.357
2577.5	40.361
2954.2	40.162
3138.3	38.328
3091.6	36.056
2824.6	31.305
2426.3	25.08
2048.8	19.105
1916.1	13
2148.9	11.18
2594.7	13.601
3055.7	19.416
3423.2	24.166
3647.8	28.018
3744.4	31.145
3728.1	32.696
3608.5	32.65
3381.5	31.575
3046.5	29.732
2644.6	27.019
2310.3	24.083
2294.4	21.095
2723.6	18.974
3422.5	18.385
4125	19.416
4650.5	19.105
4891.3	18.974
4803.2	20
4405.4	21.633
3767.2	24.042
2980.3	25.179
2142.6	25.554
1340.8	24.698
769.81	21.024
929.63	14.765
1595.4	8.544
2339.6	2.2361
3017.6	5.099
3558.3	8.6023
3919.2	9.2195
4104.9	7.6158
4179.4	4.1231
4219	4.1231
4273.5	7.2801
4307.5	10.296
4232.4	11.18
3954.4	10
3420	6.3246
2646.2	5.099
1710.2	9.4868
729.47	16.031
186.59	22.204
886.78	26.249
1354.4	28.46
1607.2	28.302
1771.2	27.295
2017.6	23.431
2445.7	19.026
3002.1	13.038
3566.6	7.8102
4042.5	10.63
4342.6	17.263
4429.6	24.207
4277.4	30.067
3883.3	33.615
3276.3	35.847
2506.1	36.056
1678	34.54
985.68	33.971
878.17	33.242
1293.1	32.016
1702.5	31.145
1968.5	29.069
2089.1	27.803
2104.9	28.284
2035.2	28.844
1881.6	28.862
1624.6	28.231
1297.8	25.554
1070.7	20
1238.3	13.416
1748.7	6.4031
2327.4	5.099
2797.7	10.44
3071.5	15.133
3109	18.028
2932	18.868
2589.4	19.026
2143.1	18.385
1678.5	16.279
1271.5	15.524
977.87	14.318
813.46	13.454
777.77	12.649
823.97	10.198
921.38	8.0623
1052.4	5.831
1193.3	7.2801
1310.7	11.18
1377.3	16.971
1362.1	21.19
1247.6	23.195
1064.7	23.324
883.33	21.401
836.02	18.385
979.96	16.492
1202.1	16.279
1379.3	17
1445.1	18.028
1401	16.279
1255.2	11.705
1047.8	5.831
837.6	5.3852
679.05	12.53
600.43	18.868
635.96	23.195
748.51	23.537
887.04	22.847
1005.6	24.597
1060.3	28.844
1025.6	36.797
915.01	43.863
743.24	48.042
588.54	49.041
536.74	47.381
607.42	42.154
702.18	35
769.91	28.792
777.94	21.932
742.78	17.464
679.36	13.153
607.99	10.63
541.01	10.05
480.1	11.314
433.58	13.342
388.03	13.342
352.64	13.416
322.83	14.213
337.72	17.205
424.52	20.616
558.92	23.77
698.64	25.495
809.11	28.071
848.56	29.411
815.24	32.016
707.96	33.242
550.33	34.409
378.81	32.249
229.46	29.12
139.45	25.554
135.92	24.207
194.13	26.173
291.67	29.53
418.89	32.388
541.27	31.048
645.03	25.612
696.05	18.358
716.37	9.4868
696.35	5.3852
5660.6	35.355
5238.5	34.205
4402.7	30.017
3172.1	27.203
1631.6	28.018
184.88	35.468
1717.4	43.267
3107.6	47.539
4055.6	48.374
4447.9	44.294
4237.1	38.21
3463.2	31.305
2250.8	25.495
816.28	21.024
898.37	17.464
2285.2	13.038
3405	10.296
4116.1	14.036
4346.2	21.932
4120.3	29.428
3529.7	34.176
2784	36.878
2300.3	36.139
2508.9	32.558
3172.7	28.844
3811.1	24.413
4107.5	21.587
3949.9	20.396
3313.2	20
2319.4	20.616
1448	21.213
1945.7	22.023
3317.7	21.932
4654.9	22
5655.2	20.881
6130.2	19.723
5997.3	19.105
5246.6	20.809
3931.9	22.136
2217.5	22.023
689.73	21.024
1971.3	17.804
3607.9	13.153
4782.9	7.2111
5287.5	4.4721
5052.8	6.3246
4130.7	8.544
2780.3	10.44
1764.3	9.434
2486.5	7.2801
3915.2	7.0711
5052	9.434
5582.7	11.402
5418.8	12.806
4630.3	11.045
3374.2	6.3246
1937.3	2.2361
957.46	11.402
1510.2	21.213
2316.9	29.833
2753.8	35.735
2740.1	37.643
2348.3	35.228
1697.4	29.155
1203.9	19.925
1639.5	12.042
2689.9	12.042
3822.2	18.682
4770.2	25.807
5372.5	30
5489.4	30.887
5063.9	30.232
4109.6	27.659
2739.7	26.077
1162.5	26.926
637.67	29.833
1956.6	33.106
2915.6	36.125
3330.4	38.601
3178.4	38.275
2535.5	36.139
1611	34.059
943.33	29.155
1393.4	25.06
2134.6	19.723
2582	15
2605.9	10.77
2208.7	7.8102
1502.2	5.6569
822.92	5.6569
1164	5
2069.6	5.3852
2877.7	8.9443
3407	13.454
3573.3	17.889
3343.8	22.023
2744.1	23.77
1852.6	24.042
786.94	22.472
336.79	18.028
1309.6	14.142
2032.6	11.18
2413.1	10
2411.1	13
2047.6	15.133
1412.7	16.763
669.35	18.868
450.61	19.105
1015.9	18.868
1453.1	18.682
1608.5	17
1479	14.56
1103.2	12.083
585.7	10.817
341.74	9.2195
792.71	8.6023
1263.7	8.0623
1584	7.2111
1714.4	8
1654.5	10.63
1416.7	14.142
1025.7	17.464
545.56	19.105
198.04	19.698
605.97	18.439
1040	18.248
1343.9	21.213
1461.5	27
1373.8	34.205
1089.6	39.661
661.25	43.012
149.79	43.417
378.4	42.297
816.87	38.013
1107.7	33.242
1223.3	28.302
1154.5	24.042
932.94	21.024
618.62	18.439
310.83	15.264
307.06	12.207
515.55	9.0554
677.11	6.7082
727.52	6.7082
670.3	7.0711
534.73	8.544
353.79	12.806
175.23	18.028
199.49	25.495
401.84	32.757
610.57	37.802
791.54	41.593
912.78	42.012
944.45	39.395
877.61	33.242
695.43	25.495
437.72	18.974
219.13	16.553
382.4	19.698
658.84	24.331
864.02	26.926
969.16	26.173
937.34	21.84
791.91	16.763
566.13	9.434
356.2	3.6056
5842.2	25
5222.9	32.202
4217.3	36.878
2893.9	34.713
1373.2	26.627
289.91	15.62
1743.9	15.033
2997.1	29.069
3865.9	42.942
4253.2	51.313
4111.6	53.009
3439.7	46.325
2325.1	33.615
895.86	17.464
668	1.4142
2170.1	13.038
3407.6	24.083
4226	31.064
4514.6	35.228
4265	40.804
3565.1	47.011
2683.1	50.329
2194.9	50.09
2643	42.953
3532	29.069
4250	10.44
4509.2	11.662
4196.8	31.257
3343.8	46.065
2142.9	54.12
1393	52.773
2369.9	43.186
3872.4	29
5145.9	11.18
5944.7	12.53
6146.8	26.077
5721.6	36.878
4720.1	40.2
3283.6	38.419
1592.1	33.015
505.13	25.612
1982.2	19.698
3331	15.033
4250.6	15.033
4637.7	17.464
4471.7	21.26
3792.5	24.187
2762.8	25.06
1807.1	22.825
1966.5	21.213
3106.2	23.537
4273.2	30.48
5065.9	36.674
5321.4	38.588
4971.1	34.482
4074.1	25.962
2773.3	20.591
1401	27.803
1193.1	41.437
2257.2	53.226
3117.4	58.523
3445.6	55.758
3177.5	46.872
2397.2	33.615
1488.6	22.472
1696.1	19.925
2998.7	22.561
4341.1	23.324
5332.4	17
5796.8	8.0623
5659.7	13.601
4958.4	26.627
3802.5	38.91
2392.6	45.277
1120.3	45.607
1202.1	40.497
2115.7	30.265
2754.5	20.616
2935.8	17.72
2659.8	24.698
2011.2	33.242
1196.9	40.608
782.13	44.721
1317.4	44.283
1957.5	39.051
2338	28.601
2367.5	17.263
2058.4	7.0711
1504.3	12.083
1026.4	19.925
1295	21.541
2077.5	18.028
2850.3	9
3399.1	3.6056
3607.4	16.279
3428.1	27.857
2853	33.601
1966.3	34.059
873.35	27.785
286.27	17.464
1332.4	6.7082
2124.3	6.0828
2550.4	15
2557.5	18.028
2167.4	17.464
1472.6	12.042
616.13	6.4031
404.26	9
1115.9	14.56
1610	18.439
1770	18.028
1597.4	15.297
1129.2	10
511.12	4.2426
424.63	4
1026.4	8.0623
1518.7	12.042
1788	14.318
1811	16.155
1607.1	17.029
1226.6	16.763
765.01	16
367.28	16.279
415.22	17.088
716.2	17.493
948.58	17.692
1072.6	16.971
1090.1	18.439
1006.2	24.759
837.44	34.132
584.34	40.792
298.09	43.932
225.62	42.438
518.12	35.511
815.99	26.249
1027.4	18.974
1114.4	19.235
1048.6	24.352
841.26	28.018
506.56	27.785
111.65	22.825
315.16	15.033
670.8	6.4031
909.18	3.1623
986.14	11.402
888.02	18.439
635.71	24.597
304.73	29.069
270.25	31.257
626.93	30.806
937.92	26.627
1118.1	24.166
1149.9	25.632
1034.7	31.575
791.68	36.497
484.22	37.443
233.82	32.249
326.81	21.095
554.17	7.0711
727	13.038
819.66	27.313
823.31	37.202
759.4	39.051
637.77	34.67
472.27	25.495
309.26	17.205
7222.5	22.204
6963.8	31.385
5808.3	34.986
3941.2	32.016
1927.5	22.361
1913.2	8.4853
3607.7	9.4868
4866.9	25.612
5273	39
4782.9	47.518
3553.3	48.415
1934.3	44.011
556.42	34.366
1319	21.401
2071.6	7.0711
2265.6	9.2195
2210.9	21.932
2553.2	32.249
3430.2	40.361
4297.5	44.911
4669.9	46.519
4283.9	46.957
3127.6	43.932
1631.8	36.878
1834.2	27.019
3575.7	12.728
4962	6.0828
5467.2	22.361
4884.4	37.216
3259.2	48.332
894.25	54.129
1921.7	50.99
4491.9	41.11
6431.9	25.495
7408.7	12.806
7274.5	23.345
6137.1	39.319
4290	50.249
2160.8	53.235
278.86	48.26
1287.3	36.878
2055.5	22.627
2319.3	16.279
2569.3	25.06
3202.9	33.541
3953	35.805
4335.9	33.242
4009.4	27.019
2882.9	24.698
1273.6	30.265
1713.5	38.471
3769	43.966
5474.2	43.417
6390.8	37.363
6325	28.792
5332.8	24.083
3690.6	28.178
2068.9	37.336
1959.8	45.222
3014.5	47.802
3678.6	47.17
3573.1	41.34
2763.2	34.132
1620.8	26.173
1439.2	20.025
2641.7	16.401
3861.6	16.125
4726.7	16.279
5186.2	14.866
5283	12.166
5072.4	11.402
4554.3	15.811
3699.3	24.331
2537	32.757
1242.4	40
1048.5	43.829
2204.4	42.048
3158.6	35.114
3556.3	25.239
3303.5	18.788
2454.6	25.71
1188.8	37.59
343.51	47.434
1572.2	51.088
2475.2	47.707
2828.7	38.328
2606.9	28.425
1893.7	23.409
939.65	28.018
743.05	32.802
1640.8	34.366
2420.2	29.682
2901.2	21.024
3092.1	19.313
3050.3	28.071
2844.9	38.833
2466.5	46.69
1894.3	47.802
1114.1	42.297
219.71	32.45
858.08	24.698
1758.8	24.042
2391.4	29.614
2638.4	32.016
2444.5	29.069
1840	22.023
947.26	16.401
200.36	21.095
1045.8	31.064
1715.5	37.537
2008.5	37.216
1873	30
1356.4	19
572.97	12.042
317.59	21
1130.1	31.89
1732.9	38.013
2013.9	37.202
1961.2	28.46
1620.4	14.866
1144.4	3
744.08	18.682
706.85	30.463
872.86	36.359
964.59	34.132
947.43	24.759
939.46	10.44
1044.5	13
1190.6	30.414
1225.9	44.777
1054	53.151
671.41	53.759
280.74	46.69
666.24	32.696
1217.6	13.892
1593.4	6
1694.5	24.698
1493.8	37.577
1024	43.417
391.48	41.869
323.31	33.526
885.76	18.974
1240.4	3.1623
1316	15.652
1105.6	30.414
680.36	40.46
211.24	42.72
457.6	38.328
846.81	28.653
1052.3	17.205
1054.5	15.133
898.54	25.08
711.29	34.928
612.4	41.231
599.95	40.447
534.63	34.015
346.24	22.361
232.02	10.817
549.37	11.402
937.92	21.541
1217.7	30.414
1302.2	34.366
1166.8	33.941
842.11	29.155
397.85	22.804
141.44	17.029
3481.1	5
4708.3	13
5570.1	21.095
5737.5	25.495
5334.4	26.306
4848.2	21.932
4903.1	15.297
5549.7	14.56
6189.2	26.306
6314.3	41.881
5792.9	54.424
4803.3	59.908
3830.6	57.385
3333.6	45.277
3239.6	25.807
3048.1	10.817
2616.5	31.064
2541.9	53.339
3429.8	68.768
4685.6	74.33
5577.5	69.123
5737	53.759
5142.5	32.894
4194.5	11.18
3850.8	13.342
4663.5	27.019
5808.6	32.202
6480.5	30.48
6380.3	23.707
5642.3	20.248
4801.5	23.854
4554.7	29.12
4987.7	30.083
5409.2	25.554
5267.9	20.809
4405.8	24.698
3065.1	37.336
2003.6	48.918
2375.4	56.08
3350.9	58.694
3948.6	58.215
3975	56.939
3607.3	57.271
3192.1	57.871
3008.1	58.694
2961.2	58.249
2742.7	58.523
2207.1	61.847
1460.6	68.264
882.58	74.626
843.26	77.492
806.24	74.847
369.24	68.964
1001	63.127
2492.8	61.612
4102.6	63.906
5442.1	66.408
6210.6	64.885
6236.3	58.241
5511.3	45.277
4261.1	31.575
2983.3	18.385
2554.7	8.6023
3196.8	8.2462
3979.5	16.155
4407.7	28.018
4384.2	39.319
3982.9	47.434
3306.5	49.477
2421	43.382
1436	29.155
1026.5	10.63
2015.9	20.1
3249.3	41.049
4221.8	57.219
4695.6	64.444
4583.3	61.188
3966	48.301
3155.5	29.12
2673.8	12.369
2864.5	26
3277.2	45.343
3389.5	58.009
3012	63.891
2225.6	62.514
1345.7	57.009
1096	50.09
1546.2	45.343
1823.9	41
1644.4	38.484
1047.7	35.355
483.43	34.132
1161.2	34.205
1987.7	36.688
2555.9	40.853
2766.2	44.283
2683.2	45.88
2468.4	44.283
2282.6	40.804
2163.2	37.736
2007.4	35.128
1687.6	33.971
1199.3	32.388
640.91	29.53
323.43	26.077
543.89	26.077
710.75	30.871
759.59	36.235
894.88	40.522
1224.8	38.949
1600.3	33.956
1831.5	26.173
1852.9	23.259
1713.2	28.018
1627.2	35.805
1788.6	38.328
2101.5	34.713
2316.3	26.019
2266.7	14.318
1900.3	14.036
1295.8	25.239
665.64	33.541
638.81	34.713
1033.1	29.017
1219	17.692
1080.2	10.63
686.09	19.105
447.79	28.071
925.25	31.305
1471.7	29.206
1819.6	22.361
1888	20.248
1704.6	25.807
1359.6	31.623
1009.3	32.249
836.23	25.612
866.86	11.18
917.18	9.434
874.57	28.231
744.22	42.544
573.28	48.508
406.61	46.755
239.35	36.346
59.548	28.636
170.88	36.674
387.41	52.355
556.23	65.146
629.89	68.154
579.73	59.481
435.37	41.437
267.09	24.021
228.88	30.414
323.12	50.695
366.19	65.924
360.58	72.007
440.88	67.446
674.44	55.471
943.19	42.544
1143.2	39.459
1196.8	45.541
1095	53.339
853.84	54.12
558.16	47.424
394.66	34.928
498.4	19.698
633.41	6.7082
2541.5	20.396
4400.4	27.459
5863.9	31.145
6703.6	31.828
6869.2	27.019
6493.3	23.324
5849.3	24.413
5322.8	32.016
5159.6	40.46
5249.4	46.573
5257.6	47.127
4914.3	42.45
4132.1	34.205
2979.5	21.587
1712.1	9.2195
1175.1	7
2011.9	19.209
2962.7	31.78
3597.7	42.953
3852.1	52.802
3782.1	57.245
3549.6	56.009
3384.2	47.508
3464.4	33.106
3781.9	16.553
4188.5	12.042
4520.1	25.632
4720.1	36.359
4829	39
4955	33.121
5173	22.023
5468.2	10.63
5711.1	16.031
5727.2	25.08
5377.5	29.682
4593.6	26.683
3401.5	24.331
1924.2	32.202
625.66	50.12
1616.2	66.761
2977.6	77.389
4006.1	80.777
4570.2	75.644
4649.2	67.912
4300.8	65.069
3688.4	71.309
3041.7	81.707
2629.8	90.785
2555.6	93.005
2573.8	90.554
2387.7	84.172
1809.1	79.246
810.97	77.318
594.77	77.104
2170.7	75.928
3766.3	71.344
5144.2	62.586
6098.5	51.624
6484.5	40.262
6251	29.53
5478.2	19.647
4417.2	9.2195
3583.5	4.4721
3571.3	15.232
4280.8	27.166
5005.9	35.228
5302.1	40.249
4979.8	40
4033.2	34.928
2599.1	26.907
982.48	15.232
1224.3	3.6056
2738.3	14.213
3933.5	28.792
4639.4	42.107
4833.3	51.108
4613.4	53.712
4163.4	49.092
3716.2	36.878
3442.3	21.213
3327.7	20.248
3220.3	39.205
2970.3	58.6
2551.2	71.309
2033	76.557
1597.6	74.25
1397.6	66.408
1378.4	56.462
1299.7	50.249
999.06	48.094
464.57	47.508
365.15	46.53
1172.3	43.267
1961	39.294
2587.9	35.777
2960.2	34.785
3037.1	32.757
2839	32.016
2428	30.017
1899.5	28.844
1354.6	28.16
870	25.942
475.28	22.136
151.6	20.518
275.51	24.042
651.45	32.894
1034.3	40.706
1356	45.222
1565.1	46.53
1637.7	43.932
1601.2	42.45
1533.8	43.738
1548.7	48.332
1677.3	52.326
1852.2	52.202
1974	47.707
1979	42.107
1832.3	37.443
1549.8	37.59
1181.7	40.112
816.85	41.725
547.84	40.311
469.62	35.355
504.98	31.765
508.97	31
433.52	33.015
355.04	32.757
417.31	28.018
642.34	18.248
905.11	5.3852
1149.8	9.434
1323.3	21.84
1415.3	30.806
1415.7	34.234
1335.4	32.65
1207.8	29.428
1062.1	26.571
931.8	29.069
840.12	33.061
768.15	37.643
696.98	38.118
602.96	36.878
483.83	35.228
354.11	34.67
235.41	37.108
153.83	39.115
130.83	42.297
151.21	41.725
205.91	38.328
278.69	31.623
350.66	25.02
410.24	24.166
446.45	32.016
464.04	44.181
481.13	54.406
511.59	59.908
579.54	59.933
658.63	55.714
740.62	49.649
796.38	46.53
807.67	48.083
779.19	51.157
710.72	52.402
613.46	47
504.69	36.797
413.27	23.022
1936.9	22.023
3720.7	19.799
5230.8	19.235
6308.2	20.591
6872.8	24.042
6967.5	28.844
6716.4	32
6297.6	34.132
5840.2	34.886
5413.9	34
4944.3	30.887
4369	27.785
3618.1	24.083
2729.5	21.932
1866.6	21.024
1433	24.839
1766.7	31
2431.2	37.202
3036.4	42.72
3460	45.891
3676.4	45.277
3718.3	41.485
3653.2	35.735
3594.1	27.203
3650.6	20.1
3861.9	13.601
4200.9	12.083
4566.7	13
4908.7	13.342
5189.3	12.207
5415	12.042
5564.8	12.207
5611.3	13.416
5488.8	16.492
5118.2	19.105
4437.1	21.633
3421.9	25.08
2119	28.862
720.46	34.409
1218.1	42.297
2681.4	50.99
3907.4	60.008
4701.8	68.118
4975.3	73.682
4714.6	76.4
4065.3	78.409
3301	81.345
2833.5	87.092
2851.7	95.901
3024.8	103.7
2886.6	108.07
2207.5	107.38
965.56	102.07
728.76	93.434
2593.6	85
4368.7	76.688
5768.3	69.971
6587.2	60.638
6715.7	47.434
6198.3	30.067
5208.3	8.4853
4113.3	12.649
3435.5	30.676
3544.5	42.012
4083.5	45.277
4531	40.311
4603.6	28.32
4225.7	15.811
3445.6	12.083
2378.4	18.385
1245.6	21.26
1034.9	16.125
2057.1	5.3852
3133.9	15.811
3971.9	35.355
4479	51.478
4645.3	60.811
4507.6	62.514
4184.9	56.613
3829.6	47.043
3548.6	42.942
3373.3	52.431
3234.5	67.268
3025.2	80
2726.1	86.128
2353.5	83.934
1959.5	74.947
1601	59.54
1275.2	44.045
986.07	32.558
838.64	27.857
1047.3	28.178
1532.4	29.967
2067.3	31.064
2515.4	32.65
2782.1	33.422
2834.7	35.171
2674.9	35.171
2350.2	35.384
1908.8	34.132
1439.3	32.802
1003.2	32.249
685.41	32.802
562.25	33.377
613.77	34.67
711.21	34.928
801.06	34.482
899.87	35.44
1031.6	35.355
1218.9	37.643
1431.3	38.91
1643.6	40.311
1798.8	41.11
1892.9	40.311
1905.5	38.328
1849.5	36.715
1756.4	35.114
1627	35.468
1473.7	35.777
1298.2	35.44
1096.6	34.986
863.49	34.525
616.09	33.302
386.91	34
259.19	34.713
343.58	35.128
519.51	34.713
691.83	30.017
847.01	22.627
979.39	14.142
1086.4	9.2195
1168.5	17.117
1234	26.926
1269.1	34.713
1266.1	39.205
1231.6	40.2
1152.3	38.419
1039.4	36.878
902.85	36.674
753.6	40.249
605.78	43.681
475.97	46.957
369.78	47.927
313.97	46.573
311.71	42.012
343.8	37.014
363.88	30.806
361.17	26.571
323.14	23.087
287.24	21.633
284.46	22.091
346.31	25.495
433.2	30
497.69	36.797
535.31	44.102
534.11	50.606
520.15	57.871
523.89	61.911
571.28	65.146
649.34	64.475
729.74	62.241
783.52	56.303
790.68	49.659
742.34	41.629
652.62	35.171
542.4	30.48
2430.4	29.547
3571.8	26.683
4509.6	25.807
5277.7	23.345
5879.4	20.616
6310.8	15.556
6528.6	15.556
6541.9	20.616
6349	29.411
6002.3	38.079
5529.8	42.521
4934.4	44.045
4222.6	42.802
3412.6	39.623
2635.9	36.056
2133.3	32.016
2107.4	27.857
2399.3	22.672
2696	19.723
2889.9	23.259
3030.1	32.249
3231.3	40.497
3487.6	47.011
3719.6	48.042
3858.7	44.407
3952.3	37.483
4168.3	30.48
4657.9	25.179
5352.7	22.847
6030	20.248
6456.7	16.031
6483.5	12.369
6094.3	15.811
5357.6	24.839
4430.4	35.228
3453.2	41.34
2499	42.953
1560.9	41.195
677.67	37.216
853.3	34.205
1895.2	34.482
2922.1	38.639
3744.9	45.255
4284.6	55.326
4534.9	67.424
4560.5	80.808
4458.5	94.021
4265.9	105
3933.4	112.16
3361.3	115.39
2495.9	115.43
1428.3	113.65
925.19	111.13
1995.8	108.23
3286.5	101.43
4369	90.028
5116	74.108
5485.9	53.254
5524.4	29.411
5297.3	7.8102
4921.4	14.318
4509.8	27.731
4198	34.366
4086	34.828
4153.2	28.792
4249.4	19.026
4176	8.2462
3799.9	7.0711
3063.5	12.207
2013.6	16.031
781.6	15.62
525.38	16.031
1694.4	19.698
2669.3	27.313
3421.6	35.341
3970.9	42.755
4362.8	47.381
4602.7	48.374
4643.7	47.17
4446.1	45.354
4025.3	45.486
3510.6	50.804
3128	58.523
3059.4	67.357
3210.9	73.376
3279.7	75.432
3045.6	73.246
2455.5	66.242
1603.1	56.798
863.95	45.891
1186.3	36.401
1936.5	29.155
2456.5	26.907
2614.6	26.173
2455.1	25.298
2123	26.401
1853.5	29.411
1826.1	33.526
1974.9	37.216
2073.7	39.962
2003.2	38.949
1716.8	37.054
1279.5	33.302
783.66	30.15
518.7	29.833
842	32.249
1345.4	36.056
1809	39.56
2163.3	41.976
2370.1	43.139
2413.7	41.593
2288.8	40.249
2009.7	37.577
1627.3	36.401
1204	36.359
845.21	36.497
753.12	37.643
1002.4	37.014
1359.2	35.609
1652.8	32.757
1810.5	30.017
1793.7	28.862
1620.1	29.155
1363.3	31.048
1184.2	33.615
1228.5	34.986
1429.9	34.059
1613.7	29.833
1651.5	23.77
1506.7	15.811
1183.7	10.77
756.83	16.492
428.87	25.942
637.8	34.928
1057	40.608
1413.8	44.011
1625.6	43.863
1684.8	43.012
1584.2	43.139
1356.2	45.044
1042.1	48.104
705.99	50.09
412.8	49.93
263.6	46.615
317.97	40.311
443.52	33.015
575.58	26.077
694.23	21.587
759.37	20.224
729.19	20.616
585.98	23.537
340.13	28.302
186.34	35.171
468.48	43.829
754.14	51.894
921.58	59.228
911.72	62.968
735.26	64.498
419.07	63.53
244.91	59.933
574.56	54.918
910.31	48.836
1124.5	43.105
1171.5	38.013
1075.4	32.016
877.25	27.295
3232.3	32.985
4161.5	34.132
4710.2	33.541
4846	31.241
4779	27.019
4871.2	19.235
5387.5	10
6177.3	10
6888	21.213
7209.2	32.802
6995.9	43.012
6295.4	49.649
5359.9	52.697
4569.6	52.086
4272.4	46.755
4391	38.833
4504.5	28.792
4288.4	16.971
3617.2	10.296
2557.5	18.439
1289.7	30.232
644.79	41.231
1755.2	48.052
3008.9	50.99
4219.4	50.249
5397.8	44.944
6500.9	36.688
7405.2	27.731
7928.8	18.439
7915.3	13.038
7281.6	12.728
6050.1	17.72
4402.6	22.361
2731.5	25.962
1928.6	29.411
2553.5	32.016
3303.6	33.121
3491	33.838
2981	33.541
2042.1	34.366
1787.3	38.013
3125.5	43.841
4832.7	51.624
6231.6	61.294
7022.6	70.803
7085.4	80.324
6405.9	89.185
5142.9	97.908
3522.7	106.38
1895.5	115.31
1022.4	121.49
1623.4	124.82
2265.1	122.54
2529.1	114.59
2499.2	99.725
2477	81.786
2778.9	60.539
3449.3	39.115
4287.3	20.1
5110	7.0711
5796.5	9.2195
6247.4	15
6395.2	18.248
6195.3	18.682
5623.4	18.601
4712.3	18.358
3559	16.125
2299.3	13
1115.8	8.4853
218.05	3.6056
550.12	7.2801
855.63	15.297
1037.5	24.083
1440.7	32.016
2170	39.825
3055.2	45.541
3877.5	51.313
4502.1	55.785
4842.2	59.059
4882.8	61.098
4664.5	61.984
4261.8	60.216
3772.1	58.034
3280	55.471
2842.5	52.202
2456.1	52.173
2102	54.129
1733	58.412
1387.1	60.166
1184.4	61.188
1279.4	58.052
1579.3	53.151
1871.6	46.043
2019.6	36.401
1962.8	24.698
1758.6	12.042
1578.8	7.0711
1659.7	19.416
1981.4	33.242
2311.9	45.486
2442.6	52.086
2272.2	55.317
1776.5	53.151
1041.3	47.424
482.58	38.91
1088.3	30.414
1868.9	22.672
2447.7	17.889
2737.9	19.416
2740.4	26.173
2512.9	35.805
2130.1	45.88
1671.8	52.631
1171	56.851
653.84	56.036
339.84	52.01
808.6	45.891
1429.4	38.275
1970.6	32.757
2320.9	27.785
2424.3	25.08
2247.1	22.023
1869.7	22.472
1442.6	25.612
1233.4	30.887
1356.2	34
1574.7	36.056
1634.8	33.526
1457.4	29.53
1048.8	25.179
550.35	25
525	29.732
1029.7	35.114
1482.4	40.311
1748	42.953
1796.9	44.643
1653.2	44.407
1373.2	44.045
1019.8	44.204
666.4	44.272
332.56	44.147
39.319	43.863
235.27	42.059
482.87	40.608
681.24	37.802
790.73	33.541
787.81	29
648.32	23.77
410.59	21.26
115.74	20.591
261.27	24.083
532.98	28.231
695.55	35.228
724	42
603.01	50.22
360.6	57.009
108.66	62.169
342.53	64.382
639.01	64.288
847.97	61.131
944.62	56.586
924.08	50.289
800.17	43.932
622.05	37.537
448.3	31.321
352.46	25.632
3782	25.495
3851.4	19.105
3657.2	12.649
3456.3	10.198
3587.7	15.297
4211.3	23.324
5091.6	29.155
5942.6	30.067
6523.5	27.857
6741.1	23.022
6577	21.095
6102.9	28.302
5392.6	41.11
4594.5	52.393
3864.8	58.189
3363.2	59.405
3169.5	53
3196.3	40.46
3213.8	24.021
3018.4	10
2499.1	21.024
1683.8	40.025
1120.2	56.08
2082.1	68.007
3724.6	73.824
5439.9	73.007
6969.6	65.788
8097.9	54.626
8665.6	41.183
8567.5	32.14
7775.7	33.956
6324.4	41.037
4384.2	46.011
2169	44.822
153.64	36.401
1975.8	22.361
3346.7	10.05
4021.4	21.26
4024.9	37.947
3651.5	50.99
3564.4	59.414
4312.8	61.847
5578.2	60.44
6721.3	55.902
7328.6	53.666
7200.6	56.719
6323.1	68.447
4863.1	85
3087.4	104.39
1324.7	122.33
142.36	135.28
1014	141.65
1271.8	138.84
1132.9	127.2
1462.4	108.12
2594.1	83.528
3944.1	57.385
5124.6	32.016
5929.1	11.18
6260.3	5.831
6169.9	12.042
5786.4	11.662
5307	5.831
4849	5
4445.6	14.318
4017.4	22.091
3489.6	27.019
2842.9	25.962
2203.4	20.248
1793.9	11.18
1761.5	5.099
1895.4	16.125
1894.6	28.425
1621	39
1170.3	48.27
1208.7	54.129
2144.2	59.059
3383.9	61.847
4566.7	63.063
5471.1	63.253
5947.2	61.4
5912.4	57.775
5361.7	52.498
4395.4	49.041
3172.5	47.096
1900.6	50.22
793.55	55.227
177.05	61.855
427.02	65.62
471.65	66.483
657.37	63.253
1266.1	56.436
1973.9	46.098
2536.6	33.015
2789.1	19.105
2633.3	6.0828
2099.1	11.18
1309	23.324
699.16	34
1109	42.107
1773.6	47.202
2172.7	49.98
2205.1	49.031
1936.8	46.011
1605.5	41.11
1648.1	34.366
2177.6	28.653
2844.1	24.083
3351.3	24.207
3559.8	28.636
3411.9	35.014
2918.9	41.146
2142.3	47.17
1173.3	51.039
176.71	52.802
898.62	53.451
1732.8	50.596
2321.9	46.615
2611.4	40.012
2602.6	33.287
2358.2	24.187
1945.9	17.263
1499.2	14.318
1135.3	19.026
938.9	26
875.43	32.202
855.01	37.014
853.3	39.051
867.74	39.319
877.68	37.202
849.69	34.132
761.22	33.242
706.26	34.132
838.98	36.235
1149.4	38
1473.7	39.115
1698.7	38.588
1746.8	39.459
1593.3	41.773
1250.4	45.793
775.67	50.478
264.01	53.235
279.08	52.802
662.9	47.434
899.11	39.051
969.72	28.653
899.9	17.804
739.4	9.2195
591.42	14.318
566.41	24.042
663.64	33.956
768.57	42.72
808.04	49.406
758.82	53.151
626.29	53.712
460	51.74
372.72	50.329
474.8	51.088
669.56	53.852
825.98	58.6
913.01	60.828
882.77	60.008
749.22	55.758
541.6	47.927
349.08	37.108
335.07	27.803
4038.9	32.65
3874	18.974
3426	5.099
3003.6	9.4868
3142.7	22.472
3973.8	31.623
5050.1	37
5974.6	36.62
6526.2	30.017
6635.8	16.155
6367.9	6.4031
5832.1	24.413
5191.8	43.909
4559	60
3994.4	68.264
3543.2	68.425
3302.8	60.208
3331.3	44.204
3486.8	22.561
3476.6	7.6158
3030	28.16
2000.9	48.6
545.09	63.127
1857.9	71.589
4122.8	72.069
6287.8	66.272
7998.2	55.973
9001.6	43.186
9165.4	33.971
8477.7	30.676
7094.9	35.44
5246.7	41.183
3243.2	42.154
1437.6	38.833
934.25	30.414
1838.7	18.028
2483.2	7.0711
2709.6	16
2613.1	31.016
2487	43.932
2823.6	53.367
3806.4	57.974
5105.4	58.898
6340.2	56.939
7174	56.613
7383.2	62.394
6858.4	75.538
5659.8	93.472
4003.9	111.95
2309.2	125.96
1401.3	134.35
1742.8	136.03
1946.8	129.36
1411.1	117.27
132.41	100.17
1701	80.131
3688.6	60.008
5443.2	39.661
6619.2	22.804
7004.3	12.042
6590.7	10.63
5597.3	12.042
4532	10.63
4050.7	6.3246
4321.2	5
4727.2	13.892
4731.1	22.136
4175.6	27.203
3256.1	27.459
2476.9	23.537
2402.4	17.088
2743.6	17.464
2789.7	28.284
2208.2	43.046
1017	57.315
867.41	68.731
2696.7	74.706
4435	75.133
5742.7	71.344
6424.6	63.008
6417.1	51.478
5788.2	41.231
4720.6	38.471
3462.2	45
2252.7	54.406
1305	62.482
694.78	66.212
343.7	64.008
311.25	58.873
748.91	51.225
1298	47.011
1806.8	46.519
2175.8	46.39
2352.9	44.643
2321.1	38.21
2088.1	25
1688.6	7.6158
1232.1	12.207
970.55	32.28
1183.3	50.596
1607.2	62.801
1918.6	69.065
1980.3	68.264
1771.3	59.615
1446	45.891
1427.1	28.32
1977.3	10
2732.8	13.416
3353.5	31.145
3652.1	44.283
3538.6	53.339
3010.5	57.14
2150.6	55.803
1082.6	50.16
134.62	43.105
1044.8	35.847
1813.9	32.016
2283.5	34.205
2449.5	37.643
2364.5	40.608
2108.9	40.46
1776.3	37
1476.4	29.428
1265.6	19.416
1153.3	10.817
1105.6	14.142
1063.5	24.166
992.96	32.45
859.17	39.205
671.8	41.869
494.36	45.277
475.04	48.01
673.59	51.971
931.28	55.218
1163.1	56.143
1313.1	53.151
1394.6	43.966
1400.5	32.14
1316.7	22.204
1140.8	26.173
866.75	40.311
509.81	53.535
97.252	62.61
319.36	64.382
677.69	58.898
914.18	46.573
996.61	29.155
922.99	9.2195
756.91	13.601
618.86	34.438
667.33	51.884
850.6	63.506
984.32	68.015
991.23	65.803
857.81	56.294
630.63	43.267
484.1	31.241
599.22	32.249
824.15	45.607
980.23	60.539
1003.8	71.028
894.11	74.793
673.4	71.12
428.51	60.407
278.64	46.011
369.95	29.428
4045.1	40.497
3239.3	23.087
2218.2	5
1407.9	13.928
1764.9	29.155
2852.3	38.833
3923	41.593
4737.6	38.013
5202.1	27.295
5359.7	11.314
5278.6	9.434
5135.2	28.32
5067.6	45.695
5141.7	57.219
5280.3	63.514
5345.3	62.177
5210.2	54.083
4786.5	40.804
4030.5	24.331
2966.4	15.524
1654.4	26.42
231.49	42.953
1442.8	56.569
3005.8	65.521
4453.7	69.857
5689.8	67.268
6619.1	60.729
7171.5	50
7299.7	38.833
6985.9	29.833
6256	27.857
5176.2	32.202
3854.3	35.777
2423	36.056
1116	30.887
853.74	22.627
1766.9	12.042
2658.9	14.142
3395.8	28.443
4013.6	43.105
4546.4	54.781
5009.9	62.626
5359	66.03
5559.3	65.924
5615.8	65.513
5553.1	69.354
5408.8	78.006
5210.3	91.782
4915.2	107.33
4430.7	122.33
3661.8	132.1
2550.7	135.01
1125.2	129.47
522.8	118.26
2205.4	101.24
3729.5	80.062
4906.3	58.822
5578.8	37.59
5681.1	21.024
5217.8	8.544
4314.6	1
3214.2	3
2376.6	2.8284
2436.3	2
3194.1	3.1623
3985.5	6.7082
4506.7	9.2195
4659.4	13.601
4452.3	16.279
3927.2	17.029
3166.2	15.133
2248.5	12.806
1255.2	17.804
389.98	31.016
926.06	48.918
1854.2	66.219
2705.6	79.699
3441.4	87.115
4026.4	87.098
4436.4	77.621
4642.9	61.221
4624	40.608
4375.6	29.206
3909.5	40.719
3271.5	59.203
2547.3	73.062
1848.1	77.318
1349.3	73.389
1238.3	60.141
1432.8	43.046
1664.7	30.232
1786.5	33.242
1775.5	44.407
1643.7	51.196
1422	49.336
1136.5	39.408
827.57	23.087
516.42	20.125
330.55	39.205
475.21	60.141
776.29	75.538
1111.1	82.298
1444	79.259
1761.7	65.069
2052.2	45.222
2312	20.125
2521.6	5.3852
2667.2	28.284
2725.1	45.607
2687.6	56.045
2525.5	58
2244.5	54.083
1845.5	45.044
1366.1	36.401
893.32	32.311
716.73	36.235
1023.9	42.426
1489.8	46.239
1909.1	47.17
2217.6	43.566
2377	35.847
2382.8	26.173
2255.2	15.133
2006.1	9.4868
1682.6	16.643
1322.4	25
981.42	31.575
704.2	34.828
540.22	37.336
493.93	37.855
482.54	38.897
480.37	39.459
515.03	42.048
633.38	44.418
800.69	46
970.12	47.011
1095.8	43.829
1141.2	37.855
1097.3	30.017
972.12	25.02
785	30.265
587.73	43
428.58	55.027
378.42	62.968
449.03	63.906
556	56.436
653.42	40.804
716.27	18.385
748.56	7.2801
759.37	33.106
734.64	55.471
685.69	71.253
616	78.39
542.74	75.286
511.31	62.817
552.64	44.283
666.11	25.179
796.22	24.597
900.18	43.382
935.31	60.208
890.56	72.615
765.36	77.006
575.2	73.437
346.11	63.953
133.45	50.12
199.42	33.377
3768	33.015
2835.8	13.601
1873.5	13.038
1405.2	28.46
1906.4	38.288
2787.6	40.792
3621.4	35.735
4312.3	24.759
4824.6	10.05
5154.5	7.6158
5317.4	22.136
5342.5	34.655
5273.9	43.324
5197.4	47.381
5182.4	47.707
5213.3	43.909
5189.4	38.013
4955.2	31.241
4381.9	27
3393.2	29.206
2011.6	36.222
367.16	44.598
1537.3	50.695
3330.9	54.12
4915.7	55.172
6151.4	53.151
6951.2	51.264
7281	48.6
7171.3	47.043
6685.4	45.793
5895	44.721
4857.8	42.012
3655.1	37.121
2344	28.425
1024.5	18.788
478.22	9.2195
1557	12.042
2537.7	23.087
3316.5	33.242
3898	41.785
4345.5	47.707
4713.3	53.038
5039.6	56.303
5331.6	57.385
5566.9	57.974
5706.1	57.871
5711.6	61.66
5548.5	72.25
5166.7	89.275
4518.3	106.57
3575.6	120.8
2338.1	128.7
906.79	128.65
836.42	118.87
2369	102.73
3744.7	83.096
4772.7	63.159
5328.8	45.891
5364.9	34.132
4904.4	28.018
4048.4	21.378
3044.3	14.866
2328.6	7.2801
2447.6	8.0623
3202.8	14.318
4002.6	19
4572	21.095
4805.6	20.248
4665.4	17
4188	14
3430.2	17.088
2467.2	25.554
1403.8	35.44
573.97	45.88
1148.4	55.172
2114	62.362
2970	67.897
3650.9	70.491
4126.4	70.214
4401.3	65.253
4472.3	56.143
4359.1	42.059
4083.6	27.203
3648.4	25.495
3106.4	41.11
2479.5	59.211
1849.3	71.568
1361	74.027
1209.2	67.602
1395.3	50.804
1690.4	30.017
1885.1	21.633
1934.4	36.125
1810	51.624
1554.4	58.215
1193.9	52.773
784.19	39
391.37	26.907
258.94	37.202
531.08	59.414
846.36	78.294
1147.8	87.464
1439.2	85.053
1732.1	71.589
2021	48.918
2295.9	21.932
2530.7	10.296
2692.8	32.202
2763.9	49.041
2708.6	59.076
2509	60.745
2187.2	56.613
1764.4	50.912
1279.2	46.098
832.95	45
692.26	46.648
999.05	49.396
1452.3	49.497
1874.2	46.39
2190.6	40.719
2368.4	31.89
2377.4	21.633
2228.6	11.662
1951.7	7.2801
1597.1	14.036
1234.5	20.248
936.8	24.083
756.16	27.459
646.26	30.463
552.08	34.132
436.3	39.013
375.07	43.382
471.76	48.27
662.87	51.245
856.08	53.085
1012.9	52
1120.2	48.27
1172.1	40
1165.1	30.529
1090.2	25.495
938.44	31.401
710.5	43.186
438.35	53.852
251.67	60.017
421.63	58.464
674.46	49.204
868.13	33.615
969.31	14.318
966.72	14.318
874.59	34.176
723.93	51.856
551.16	63.789
391.45	68.25
316.26	66.287
396.81	56.859
577.49	40.804
773.81	24.739
930.49	18.601
1011.9	33.615
998.08	53.009
892.37	67.119
706.82	76.118
477.53	77.621
275.86	72.346
246.98	59.615
354.69	42.107
2936.9	42.048
1904.8	34.713
1452.8	25.554
1718.7	23.022
2212.9	27.074
2741.8	34.828
3335.8	39.013
3979.4	38.288
4529	33.377
4855	26.907
4851.5	24.515
4532.2	28.231
4065.5	33.838
3748.6	37.643
3780.9	38.079
4061.5	37.121
4277.7	36.688
4171.1	37.736
3664.5	40.608
2784.7	41.773
1719.1	41.231
1029.6	39.812
1666.3	41.785
2742	48.332
3771.5	56.294
4669.7	62.241
5420.9	63.906
5974.6	61.008
6272.3	56.613
6236.4	52.839
5832.7	50.448
5067.3	48.415
4022.7	43.081
2843.3	33.136
1652	18.248
609.07	5.3852
513.54	22.361
1282.3	39.205
2071	50.16
2926.4	53.907
3837.9	51.614
4752.8	46.141
5574.5	43.909
6226.1	46.325
6643.3	51.971
6805.7	55.946
6682.2	58.873
6269.8	63.246
5535.8	73.082
4491.7	89.269
3157.9	106.12
1602.7	118.6
114.49	123.41
1737.6	118.98
3208.8	105.77
4355.3	86.006
5046.1	64.537
5233.6	46.84
4906	37.855
4146.1	35.511
3080.2	33.242
1958.8	26.833
1329.6	16.125
1798	10.198
2627.8	17.804
3310.6	26.42
3750.4	31.401
3922.4	30.083
3866.9	21.932
3596.6	11.18
3131.8	15.232
2473.5	31.016
1633	47.381
653.96	59.682
423.86	67.624
1485.1	69.893
2453.5	68.118
3254.1	64.327
3838.2	59.093
4202.9	53.6
4362.5	45.453
4352.3	33.541
4203.5	18.385
3920.2	11.18
3500.7	27.459
2959.3	45.177
2340.1	57.706
1779.8	62.801
1522.7	58.856
1693.9	45.88
2052	26.401
2331.2	6.4031
2421.3	20.025
2303.1	37.802
1981.7	50.961
1532.8	56.462
1019.4	58.138
523.74	57.567
330.63	58.592
702.05	61.131
1161.8	61.612
1598.7	60.008
1997.7	53.339
2333.2	43.566
2565.4	32.14
2685.7	19.925
2686.7	10
2574.8	6.4031
2371.6	13.928
2113	24.839
1829.4	35.44
1564.7	42.297
1371.2	43.417
1293.3	38.949
1328.3	28.653
1443.8	19.799
1576.4	26.926
1679.5	41.593
1732.3	54.452
1736.3	58.694
1692.8	54.009
1599	42.059
1475.9	24.597
1310.1	14.142
1126.1	24.413
923.59	37.121
716.8	43.417
534.42	44.102
407.69	45
359.29	49.041
355.09	58.694
357.06	67.624
348.93	72.25
337.09	69.354
355.44	58.694
406.16	42.426
481.27	25
552	15.297
621.39	21.401
690.56	29.155
759.52	32.894
831.01	33.377
872.82	33.015
878.72	32.016
820.67	31.064
723.59	27.295
601.15	22.804
502.31	22.561
476.49	32.558
513.39	45.398
573.01	57.697
619.84	63.246
667.99	62.514
721.34	54.083
780.43	39.623
837.34	22.361
864.65	5.6569
852.97	14.866
784.61	29.411
683.85	41.437
593.94	52.086
538.86	59.908
538.97	64.07
539.55	64.637
522.25	59.228
477.41	47.297
1354.4	52.086
620.08	45.88
684	37.483
952.39	26.249
1137.5	15.232
1473.3	10.44
2037	19.235
2637.7	31.305
3047.2	41.049
3111.6	47.265
2799.5	48.847
2205.6	45.607
1605	37.216
1458	26.926
1851.1	18.682
2324.2	13.601
2625.3	11.705
2720.6	12.369
2681.6	20.881
2625	35.014
2656.3	52.202
2842.5	67.882
3179	77.492
3608.1	80.306
4020.7	75.664
4319	63.253
4427.8	49.769
4350.2	36.878
4133.1	29.428
3886.8	28.071
3664.5	25.71
3451.3	20.518
3170.2	16.125
2778.5	18.028
2323.6	26.401
1937.2	33.015
1748.2	36.674
1731.7	36.222
1814.5	35.114
2077.1	33.121
2676.7	30.232
3553.4	27.803
4483.2	25
5230.3	23.324
5652.4	26
5690.6	32.311
5412.1	38.484
4968	44.418
4473.9	50.804
3946.6	59.414
3289.4	70.214
2409.2	80.777
1440.5	88.363
1369	90.708
2477	86.267
3647.6	73.817
4440.5	57.871
4688.9	40.311
4364.5	28.443
3577	27.857
2534.4	31.321
1526	33.015
994.63	30.676
1196.6	22.672
1616.4	12.083
2079.2	1.4142
2599.3	9.434
3113.4	18.601
3471.1	26.683
3548.6	33.377
3285.3	38.588
2717.2	43.829
1964.2	48.052
1183.2	50.22
586.46	50.606
652.08	48.374
1183.8	43.417
1831.4	37.483
2516.9	33.242
3134.1	30.529
3561.1	29.698
3718.5	28.231
3600.9	23.195
3309.1	16.643
2966	16.279
2680.5	26.926
2433.8	39.408
2114.7	49.041
1666	53.235
1232.8	50.249
1247	40.012
1740.4	23.854
2261.1	8.2462
2544.8	18.385
2520.2	37.336
2213	53.141
1750.3	65.054
1290.5	72.45
955.07	74.243
705.97	70.831
374.23	63.812
194.83	52.038
822.07	39.661
1512.4	29.428
2118.3	26.173
2560.3	27
2803.3	28.844
2890.6	28.844
2909.3	27.514
2924.6	28.636
2915.2	32.016
2816.1	34.205
2567.6	33.015
2152	25.554
1617.9	13.153
1066.5	3.1623
643.74	18.358
543.96	33.061
722.53	41.593
995.16	42.19
1308.3	37.054
1618.2	28.284
1860.1	18.682
1955.8	18
1883.4	24.413
1673.8	28
1418.9	25.06
1255.3	18.439
1237.4	14.866
1287.2	24.083
1298.3	37.336
1222.1	48.104
1081.5	53.488
936.14	52.154
826.32	44.777
724.16	33.601
571.11	22.136
347.97	11.402
105.26	7.0711
279.95	8.0623
557.14	9.4868
779.88	10.198
953.07	14
1095.9	22.204
1224.8	30.414
1330.6	38.949
1371.7	44.922
1320.2	49.497
1152	51.039
886.77	51
580.66	48
289.93	42.544
115.88	36.715
156.03	29.275
250.51	22.672
417.14	19.235
680.34	20.591
968.45	23.77
1220.3	28.284
1365	31.623
1387.3	35.128
1271.4	38.013
1044.2	41.11
763.76	42.72
481.71	42.579
309.56	39.699
2476.8	49.366
1796	50.22
1280.8	45.618
1219.2	38.013
1517.3	28.653
1854.9	19.416
2074.5	13.038
2114.9	9.2195
1967.6	13
1677.7	20.809
1317.3	30.871
1024.9	41.049
930.83	49.739
1013	53
1160.8	50.359
1369.6	42.72
1729.3	30.017
2232.1	22.136
2783.6	29.155
3263	43.324
3578.7	55.902
3706.4	64.195
3700.3	65.513
3669.7	62.225
3720.2	55.317
3849.4	45.541
3979.7	33.242
3997.2	22.361
3846.2	16.401
3546.5	23.345
3191.3	34.482
2918	43.186
2846.4	48.703
2960.5	48.795
3120	43.863
3187.4	36.222
3059.4	27.019
2722.2	23
2276.1	23.022
2009.2	23.087
2281.9	20.881
2986	15.232
3738.6	8
4279.5	14.142
4477.7	24.083
4313.4	33.121
3879.4	38.079
3391.2	39.013
3112.7	39.051
3167.7	42.107
3403	50.488
3582.4	62.298
3577.8	73.239
3403.3	78.816
3138.4	77.369
2887.9	67.602
2688.6	51.884
2508.4	31.145
2286.6	15.652
2017.7	19.647
1742.6	31.257
1530.9	36.878
1382.2	35.609
1249.7	27.313
1087.7	15.133
956.78	5.099
976.95	12.369
1183.4	18.385
1462	21.095
1723.9	21.471
1952.5	27.785
2186.3	39
2439.4	51.245
2683.7	59.775
2850.1	61.62
2892.1	55.543
2804.5	44
2647.5	29.411
2491.6	16.279
2397.6	18.439
2335.7	28.018
2230.2	34
2018.2	35.847
1679.8	35.847
1265.5	37.947
855.69	41.183
561.98	45.222
445.07	45.88
417.73	43.267
415.75	36.056
513.14	27.019
739.26	18.248
998.73	12.728
1201.6	14.142
1299.8	19.209
1271.7	27.295
1123.8	39.115
884.11	52.202
652.64	62.968
652.08	71.568
963.4	75.186
1366.7	72.18
1713.6	63.891
1922.7	50.99
1955.5	37.014
1835.1	23.707
1650	13
1572.1	10.817
1718.4	14.765
2002.3	18
2253.6	19.849
2350.7	21.213
2260.7	22.204
2019.8	23.345
1726.1	23.022
1516.3	22.361
1479.6	20.616
1559.2	20
1618.8	22.023
1570.6	25.179
1400	29
1133.6	30.265
851.5	30.871
678.14	29.411
701.6	25.318
816.73	19.416
870.59	13.601
796.79	12.042
584.96	17
256.86	23.77
167.43	29.411
540.57	33.287
833.44	34.366
980.96	33.242
941.17	29.833
723.73	25.06
411.24	21.095
324.72	16.155
643.61	11.402
952.16	9.0554
1124.6	8.9443
1126.1	11.18
964.3	12.806
694.05	15.811
377.99	18.788
188.9	23.77
378.58	31
612.88	40.497
809.99	48.104
950.22	53.488
1007.3	54.332
952.09	51.614
768.26	46.098
462.59	36.346
184.4	26.907
479.51	19.416
868.05	14.318
1156.3	12.806
1281.4	13.928
1232.6	20.1
1026.9	28.16
717.57	36.069
387.19	43.324
159.73	46.53
233.42	47.202
331.97	43.382
2330.5	43.29
1940.7	42.19
1868	38.601
1973.3	33.956
2048.5	28.443
2023	24.413
1954.8	20.591
1914.7	19
1917.5	19.723
1856.9	22.825
1631.6	27.019
1192.5	32.696
626.75	38.21
521.07	41.785
1123.6	43.012
1681.2	39.925
2034.8	32.016
2178.3	22.672
2246.8	20.881
2445.2	34.234
2855.5	52.202
3346.6	67.357
3713.2	76.485
3836.3	79.025
3712.7	72.236
3501.9	57.28
3433.9	38.949
3640.1	22.204
3970.4	22.847
4167.6	35.847
4070.9	46.098
3676.8	49.649
3191	46.098
2953	37
3141.6	25
3492.4	14.866
3629.9	9.8489
3349.7	10.44
2666.3	10.817
1884.5	7.6158
1835.3	5
2722.7	9.434
3718.6	13.928
4367.7	18.028
4505.3	19.925
4119.2	20.125
3343.8	22.472
2502.4	25
2172.4	28.284
2656.8	31.401
3413	34.986
4006.7	39.925
4263.3	46.872
4163.8	53.235
3759.9	57.697
3167	56.639
2511.4	50.289
1948.2	38.471
1588.7	22.804
1447.2	5.3852
1420.7	11
1418.6	25.06
1411.8	33.615
1404.5	37
1372.1	34.132
1300.8	28.178
1210.6	20.025
1228.5	12.083
1458.8	7.2801
1854.4	11.045
2238.9	18.788
2483.7	26.926
2506	35
2319.6	42.19
2041.3	45.177
1880.7	44
1984.6	38.91
2244.4	29
2450.3	17.804
2454.3	14.318
2244.4	24.515
1899.9	37.121
1581.2	46.861
1450.8	52.631
1479.5	53.367
1493.2	49.578
1372.7	43.012
1103	33.526
754.79	25.06
451.24	20.616
300.78	21.84
258.63	24.698
296.56	27.659
578.71	29.732
982.92	33.061
1352	38.079
1566	43.566
1522.6	50.804
1221	57.07
792.31	59.908
803.38	60.877
1402.8	59.464
2021.3	54.589
2406.2	48.01
2455.1	38.949
2164.4	29.275
1654.1	21.024
1270.3	16
1470.6	17.263
2012.5	23
2452.7	27.203
2600	29.732
2411.1	29.155
1955.3	26.306
1425.8	20.518
1180.2	15.133
1400.3	15.811
1741.2	21.401
1906.8	28.862
1813.6	34.482
1478.7	38.184
996.36	37.947
